%time,field.sys_time,field.q0,field.q1,field.dq0,field.dq1,field.sac0,field.u0
1463677545475059281,0.0,0.0,0.0,0.0,0.0,0.0,0.505253195763
1463677545476288888,0.0166666675359,3.14159274101,2.0073928833,0.0,0.0,0.0,0.505253195763
1463677545487790621,0.0500000007451,3.14012646675,2.00886559486,-0.0879727900028,0.0883590430021,0.0,0.505253195763
1463677545522802646,0.0833333358169,3.13886284828,2.01015305519,0.0121533609927,-0.0111016388983,0.0,0.505253195763
1463677545554745838,0.116666667163,3.14057278633,2.00848579407,0.0904537439346,-0.0889398679137,0.0,0.505253195763
1463677545588286008,0.15000000596,3.14309835434,2.00600767136,0.0610725469887,-0.0597399696708,0.0,0.505253195763
1463677545621913088,0.183333337307,3.14386129379,2.0052793026,-0.0152920065448,0.0160331688821,0.0,0.505253195763
1463677545681410018,0.216666668653,3.13606309891,2.01312351227,-0.452597111464,0.454613685608,0.0,0.505253195763
1463677545689164797,0.25,3.12749004364,2.02181863785,-0.0617873929441,0.0670964866877,0.0,0.505253195763
1463677545722225168,0.283333331347,3.12995171547,2.0195980072,0.209477454424,-0.200337901711,0.0,0.505253195763
1463677545754351725,0.316666662693,3.1405851841,2.00929141045,0.428541868925,-0.418046355247,0.0,0.505253195763
1463677545788555721,0.34999999404,3.1571419239,1.99302959442,0.564859628677,-0.557671606541,0.0,0.505253195763
1463677545823688480,0.383333325386,3.18270039558,1.96752905846,0.968646287918,-0.972361445427,0.0,0.505253195763
1463677545854214031,0.416666656733,3.23082661629,1.91885876656,1.91892027855,-1.94785499573,0.0,0.505253195763
1463677545886659730,0.449999988079,3.31264877319,1.83519101143,2.99041962624,-3.07221150398,0.0,0.505253195763
1463677545920486490,0.483333319426,3.42206335068,1.72150325775,3.57444596291,-3.74905204773,0.0,0.505253195763
1463677545953812214,0.516666650772,3.61339521408,1.51868259907,7.90547466278,-8.42018222809,0.0,0.505253195763
1463677545987359704,0.550000011921,3.83931303024,1.27898895741,5.64959001541,-5.96143817902,0.0,0.505253195763
1463677546020850282,0.583333313465,4.02367925644,1.08011305332,5.41238260269,-5.97111940384,0.0,0.505253195763
1463677546053816322,0.616666674614,4.21886062622,0.846778571606,6.29849147797,-8.02894592285,0.0,0.505253195763
1463677546087296472,0.649999976158,4.40669059753,0.623378932476,4.97132158279,-5.37503433228,0.0,0.505253195763
1463677546120903898,0.683333337307,4.56259012222,0.463868290186,4.38264560699,-4.19560289383,0.0,0.505253195763
1463677546154632809,0.716666638851,4.70180082321,0.341338396072,3.96999287605,-3.15619134903,0.0,0.505253195763
1463677546187787958,0.75,4.82943058014,0.251181602478,3.68780350685,-2.25321507454,0.0,0.505253195763
1463677546222431794,0.783333361149,4.95016717911,0.194438040257,3.55637788773,-1.15139913559,0.0,0.505253195763
1463677546287013359,0.816666662693,5.0671415329,0.168778911233,3.46209573746,-0.388148993254,0.0,0.505253195763
1463677546289655426,0.850000023842,5.18019580841,0.162642642856,3.32115650177,0.0199726764113,0.0,0.505253195763
1463677546320927172,0.883333325386,5.28607749939,0.163271874189,3.03174877167,0.0177817773074,0.0,0.505253195763
1463677546354243450,0.916666686535,5.38332700729,0.165047779679,2.80323076248,0.0887727886438,0.0,0.505253195763
1463677546387787020,0.949999988079,5.47037649155,0.164647772908,2.41973590851,-0.112773790956,0.0,0.505253195763
1463677546421017315,0.983333349228,5.54862737656,0.162927687168,2.27530765533,0.00956842675805,0.0,0.505253195763
1463677546477468782,1.01666665077,5.62146234512,0.163963750005,2.09478402138,0.0525958649814,0.0,0.505253195763
1463677546487566902,1.04999995232,5.68839550018,0.166163608432,1.92121350765,0.0793956294656,0.0,0.505253195763
1463677546520455689,1.08333337307,5.75148010254,0.171178847551,1.86386013031,0.22151902318,0.0,0.505253195763
1463677546554070077,1.11666667461,5.80775022507,0.174930989742,1.51234734058,0.00360872736201,0.0,0.505253195763
1463677546587210127,1.14999997616,5.8556470871,0.174940422177,1.36145818233,-0.00304196425714,0.0,0.505253195763
1463677546620509734,1.1833332777,5.89834070206,0.174293205142,1.20017695427,-0.0357917137444,0.0,0.505253195763
1463677546671861802,1.21666669846,5.92929458618,0.165535986423,0.657042205334,-0.489641487598,0.0,0.505253195763
1463677546687730464,1.25,5.94334983826,0.142855763435,0.186281040311,-0.871171593666,0.0,0.505253195763
1463677546721371092,1.28333330154,5.94783687592,0.113906674087,0.0829333588481,-0.865773737431,0.0,0.505253195763
1463677546754648346,1.3166667223,5.92571258545,0.0606310144067,-1.4103884697,-2.3307659626,0.0,0.505253195763
1463677546787133003,1.35000002384,5.89595556259,0.00364123773761,-0.375048607588,-1.08862066269,0.0,0.505253195763
1463677546820700713,1.38333332539,5.89155244827,-0.0216340441257,0.110868066549,-0.427896350622,0.0,0.505253195763
1463677546881297966,1.41666662693,5.8997964859,-0.0287417955697,0.383785873652,0.00143131252844,0.0,0.505253195763
1463677546887451167,1.45000004768,5.91549634933,-0.0234015192837,0.55819106102,0.31898522377,0.0,0.505253195763
1463677546920504128,1.48333334923,5.94735145569,0.00341880554333,1.35311758518,1.29023432732,0.0,0.505253195763
1463677546954410845,1.51666665077,5.98456573486,0.0399498231709,0.879756033421,0.901626825333,0.0,0.505253195763
1463677546987345096,1.54999995232,6.00560188293,0.0629943832755,0.382391303778,0.481046617031,0.0,0.505253195763
1463677547021029431,1.58333337307,6.01884126663,0.0810670256615,0.41198220849,0.603311955929,0.0,0.505253195763
1463677547082297725,1.61666667461,6.03143930435,0.101452000439,0.343890994787,0.61978662014,0.0,0.505253195763
1463677547087554931,1.64999997616,6.0356221199,0.115991413593,-0.0929072648287,0.25257819891,0.0,0.505253195763
1463677547121349925,1.6833332777,6.03961420059,0.133102074265,0.332440108061,0.774061262608,0.0,0.505253195763
1463677547154230838,1.71666669846,6.06257724762,0.172446459532,1.04534304142,1.586602211,0.0,0.505253195763
1463677547187971073,1.75,6.0970492363,0.226105257869,1.02297127247,1.63292598724,0.0,0.505253195763
1463677547220884264,1.78333330154,6.14117097855,0.291642218828,1.6243275404,2.29929232597,0.0,0.505253195763
1463677547274180846,1.8166667223,6.16651725769,0.34001493454,-0.103537648916,0.603069365025,0.0,0.505253195763
1463677547286597524,1.85000002384,6.15984725952,0.357524007559,-0.296689927578,0.447475492954,0.0,0.505253195763
1463677547320645993,1.88333332539,6.13043355942,0.353472739458,-1.46812188625,-0.690551936626,0.0,0.505253195763
1463677547354002105,1.91666662693,6.08361673355,0.333539634943,-1.34087955952,-0.505433857441,0.0,0.505253195763
1463677547387312999,1.95000004768,6.04334354401,0.32241076231,-1.07552075386,-0.162298679352,0.0,0.505253195763
1463677547422428343,1.98333334923,6.01178407669,0.322839379311,-0.818045020103,0.188015967607,0.0,0.505253195763
1463677547478238803,2.01666665077,5.99851369858,0.345252484083,0.0218193624169,1.15677011013,0.0,0.505253195763
1463677547487917272,2.04999995232,5.98830080032,0.37401753664,-0.634574353695,0.569133877754,0.0,0.505253195763
1463677547521753186,2.08333325386,5.97889328003,0.406992763281,0.0701220482588,1.40937805176,0.0,0.505253195763
1463677547554035395,2.1166665554,6.00545740128,0.481022119522,1.52371644974,3.03238391876,0.0,0.505253195763
1463677547588106147,2.15000009537,6.03974294662,0.566536784172,0.533414065838,2.09849691391,0.0,0.505253195763
1463677547621235591,2.18333339691,6.05837774277,0.638681292534,0.584672629833,2.23017096519,0.0,0.505253195763
1463677547679382884,2.21666669846,6.08357429504,0.720059871674,0.927109539509,2.65254378319,0.0,0.505253195763
1463677547687553014,2.25,6.12093067169,0.816069126129,1.31427681446,3.10801148415,0.0,0.505253195763
1463677547721758669,2.28333330154,6.16460800171,0.920343160629,1.30637311935,3.14843344688,0.0,0.505253195763
1463677547754658564,2.31666660309,6.21193313599,1.02964353561,1.53313696384,3.4095890522,0.0,0.505253195763
1463677547787259045,2.34999990463,6.29912757874,1.17951929569,3.69853401184,5.58295822144,0.0,0.505253195763
1463677547821350402,2.3833334446,6.36504077911,1.30799019337,0.25623896718,2.12529325485,0.0,0.505253195763
1463677547875262949,2.41666674614,6.39385795593,1.39868378639,1.47279834747,3.31632089615,0.0,0.505253195763
1463677547887300939,2.45000004768,6.44959211349,1.51520979404,1.87123906612,3.67524290085,0.0,0.505253195763
1463677547922261847,2.48333334923,6.50733995438,1.63197720051,1.59365439415,3.33079862595,0.0,0.505253195763
1463677547953937864,2.51666665077,6.58131790161,1.76309812069,2.84500408173,4.5364613533,0.0,0.505253195763
1463677547988125882,2.54999995232,6.63781833649,1.87181651592,0.545020520687,1.98663794994,0.0,0.505253195763
1463677548022666613,2.58333325386,6.66116714478,1.9415166378,0.855915725231,2.19536972046,0.0,0.505253195763
1463677548069637339,2.6166665554,6.69623231888,2.01952767372,1.24800133705,2.48530006409,0.0,0.505253195763
1463677548087450617,2.65000009537,6.72613382339,2.08700990677,0.546082317829,1.56362938881,0.0,0.505253195763
1463677548123177769,2.68333339691,6.7285490036,2.11896586418,-0.401162564754,0.353726238012,0.0,0.505253195763
1463677548154156491,2.71666669846,6.69685840607,2.10797524452,-1.50027251244,-1.01317048073,0.0,0.505253195763
1463677548187556929,2.75,6.64694023132,2.07202553749,-1.49481189251,-1.14379858971,0.0,0.505253195763
1463677548221556433,2.78333330154,6.5819106102,2.01585483551,-2.40697288513,-2.22644758224,0.0,0.505253195763
1463677548284313342,2.81666660309,6.48430681229,1.92224383354,-3.44926118851,-3.39021730423,0.0,0.505253195763
1463677548290831985,2.84999990463,6.39127922058,1.83043551445,-2.13238310814,-2.11827731133,0.0,0.505253195763
1463677548320927679,2.8833334446,6.32586717606,1.76503837109,-1.79235506058,-1.80555617809,0.0,0.505253195763
1463677548354443976,2.91666674614,6.25334262848,1.69199240208,-2.55911064148,-2.57719945908,0.0,0.505253195763
1463677548387594281,2.95000004768,6.17354440689,1.61191034317,-2.22879624367,-2.22772502899,0.0,0.505253195763
1463677548421658153,2.98333334923,6.10184955597,1.54101419449,-2.07287287712,-2.02604484558,0.0,0.505253195763
1463677548454695901,3.01666665077,6.03840017319,1.48038053513,-1.7341029644,-1.61197531223,0.0,0.505253195763
1463677548496968016,3.04999995232,5.99407339096,1.44210195541,-0.925494730473,-0.684733986855,0.0,0.505253195763
1463677548520642446,3.08333325386,5.9772605896,1.43566226959,-0.0832831189036,0.298352450132,0.0,0.505253195763
1463677548554638579,3.1166665554,5.9870929718,1.46054935455,0.673234283924,1.19487130642,0.0,0.505253195763
1463677548589246966,3.15000009537,6.01588821411,1.50860524178,1.0544834137,1.68848383427,0.0,0.505253195763
1463677548621141117,3.18333339691,6.05002689362,1.56526625156,0.993825435638,1.71117115021,0.0,0.505253195763
1463677548676641196,3.21666669846,6.10484981537,1.64569032192,2.29554748535,3.11427426338,0.0,0.505253195763
1463677548687578014,3.25,6.16661119461,1.73547184467,1.41013932228,2.27261805534,0.0,0.505253195763
1463677548720223980,3.28333330154,6.19814014435,1.79625666142,0.481591969728,1.37447094917,0.0,0.505253195763
1463677548754609731,3.31666660309,6.235039711,1.86337530613,1.73239684105,2.65264940262,0.0,0.505253195763
1463677548787807006,3.34999990463,6.26532697678,1.92453324795,0.0848394706845,1.01682186127,0.0,0.505253195763
1463677548821305439,3.3833334446,6.2595949173,1.94996666908,-0.428776860237,0.509186685085,0.0,0.505253195763
1463677548889665899,3.41666674614,6.24578762054,1.96758031845,-0.399656891823,0.547629356384,0.0,0.505253195763
1463677548895536957,3.45000004768,6.23072957993,1.98432779312,-0.503816127777,0.457224428654,0.0,0.505253195763
1463677548921539062,3.48333334923,6.20899391174,1.99494087696,-0.800329267979,0.179555341601,0.0,0.505253195763
1463677548955957983,3.51666665077,6.17663240433,1.995683074,-1.14134931564,-0.135023519397,0.0,0.505253195763
1463677548988494310,3.54999995232,6.13996124268,1.99322104454,-1.05892181396,-0.0126943811774,0.0,0.505253195763
1463677549021730703,3.58333325386,6.10477828979,1.99376761913,-1.05207717419,0.0454914718866,0.0,0.505253195763
1463677549088257175,3.6166665554,6.07597112656,2.00271344185,-0.676341056824,0.49125918746,0.0,0.505253195763
1463677549094325926,3.65000009537,6.06517744064,2.03230524063,0.0287130102515,1.28424358368,0.0,0.505253195763
1463677549121630181,3.68333339691,6.07191228867,2.08222937584,0.375373899937,1.71120893955,0.0,0.505253195763
1463677549156489028,3.71666669846,6.10273742676,2.15908527374,1.47414422035,2.90013837814,0.0,0.505253195763
1463677549189507082,3.75,6.14541864395,2.25013208389,1.08671569824,2.56267285347,0.0,0.505253195763
1463677549221130693,3.78333330154,6.17992115021,2.33450961113,0.983438193798,2.49997639656,0.0,0.505253195763
1463677549279744088,3.81666660309,6.19067239761,2.39625954628,-0.338343888521,1.20502007008,0.0,0.505253195763
1463677549286698708,3.84999990463,6.18193864822,2.43950796127,-0.185693383217,1.38989317417,0.0,0.505253195763
1463677549324298942,3.8833334446,6.1652264595,2.47583341599,-0.817028522491,0.789632737637,0.0,0.505253195763
1463677549354007929,3.91666674614,6.13520479202,2.5000436306,-0.984281480312,0.662977039814,0.0,0.505253195763
1463677549387849454,3.95000004768,6.09897136688,2.519551754,-1.18971765041,0.507507622242,0.0,0.505253195763
1463677549421154352,3.98333334923,6.0690984726,2.54754495621,-0.60265392065,1.17207872868,0.0,0.505253195763
1463677549454886386,4.01666688919,6.06261634827,2.60178136826,0.21371550858,2.08211922646,0.0,0.505253195763
1463677549487152553,4.05000019073,6.05872392654,2.66112327576,-0.447246521711,1.47838807106,-35.0,0.505253195763
1463677549521853016,4.08333349228,6.05620098114,2.72439074516,0.295860856771,2.31765604019,-35.0,0.505253195763
1463677549554534263,4.11666679382,6.09131765366,2.82871937752,1.81113195419,3.94206976891,-35.0,0.505253195763
1463677549588221121,4.15000009537,6.10763454437,2.91649866104,-0.832103490829,1.32468569279,-35.0,0.505253195763
1463677549621743640,4.18333339691,6.08101797104,2.96281552315,-0.764905154705,1.4543223381,-35.0,0.505253195763
1463677549675388045,4.21666669846,6.05283117294,3.00970935822,-0.926301121712,1.35931503773,0.0,0.505253195763
1463677549686956013,4.25,6.0151386261,3.0493388176,-1.33523976803,1.01845347881,0.0,0.505253195763
1463677549720476805,4.28333330154,5.97977828979,3.09441614151,-0.786393344402,1.68618500233,0.0,0.505253195763
1463677549755163195,4.31666660309,5.93476915359,3.13262104988,-1.91415441036,0.606098771095,0.0,0.505253195763
1463677549787517143,4.34999990463,5.86703300476,3.15071487427,-2.15001344681,0.479533016682,0.0,0.505253195763
1463677549821889784,4.38333320618,5.79180574417,3.16532278061,-2.36361217499,0.39694866538,0.0,0.505253195763
1463677549882221045,4.41666650772,5.71350002289,3.18222999573,-2.33474111557,0.617475032806,0.0,0.505253195763
1463677549889493972,4.44999980927,5.62568902969,3.19436883926,-2.93390011787,0.110854253173,0.0,0.505253195763
1463677549920827333,4.48333311081,5.52410650253,3.19762659073,-3.16105985641,0.0846141278744,0.0,0.505253195763
1463677549954334779,4.51666688919,5.40708637238,3.18914961815,-3.86016368866,-0.593235194683,0.0,0.505253195763
1463677549987236713,4.55000019073,5.27090787888,3.16392469406,-4.31054496765,-0.920261859894,0.0,0.505253195763
1463677550020657251,4.58333349228,5.1265411377,3.14178109169,-4.3514547348,-0.408351868391,0.0,0.505253195763
1463677550084258724,4.61666679382,4.9769153595,3.12941336632,-4.62610149384,-0.333702325821,0.0,0.505253195763
1463677550089058247,4.65000009537,4.81828355789,3.12243628502,-4.89179563522,-0.0849347189069,0.0,0.505253195763
1463677550120987187,4.68333339691,4.64981174469,3.11432743073,-5.21650695801,-0.401591569185,0.0,0.505253195763
1463677550154918084,4.71666669846,4.47018575668,3.10451364517,-5.56104660034,-0.187239095569,0.0,0.505253195763
1463677550188682171,4.75,4.27996778488,3.09795475006,-5.85204744339,-0.206282749772,0.0,0.505253195763
1463677550221968719,4.78333330154,4.08087921143,3.09013152122,-6.09325790405,-0.263114273548,0.0,0.505253195763
1463677550274983813,4.81666660309,3.87166833878,3.08473157883,-6.45940446854,-0.0608879961073,0.0,0.505253195763
1463677550287002449,4.84999990463,3.65414738655,3.08176922798,-6.5918469429,-0.116846106946,0.0,0.505253195763
1463677550320657582,4.88333320618,3.43245005608,3.07791614532,-6.7099852562,-0.114342994988,0.0,0.505253195763
1463677550354147151,4.91666650772,3.21425080299,3.06776928902,-6.38197040558,-0.494465440512,0.0,0.505253195763
1463677550387595308,4.94999980927,2.99952292442,3.0536403656,-6.50170373917,-0.353266954422,0.0,0.505253195763
1463677550420515782,4.98333311081,2.78565979004,3.04047703743,-6.33008527756,-0.436544418335,0.0,0.505253195763
1463677550453839830,5.01666688919,2.57790184021,3.02517724037,-6.13540172577,-0.481437712908,0.0,0.505253195763
1463677550493247083,5.05000019073,2.37674736977,3.00931048393,-5.93385648727,-0.470568090677,0.0,0.505253195763
1463677550522078717,5.08333349228,2.18164682388,2.9960463047,-5.77217435837,-0.325280159712,0.0,0.505253195763
1463677550554707278,5.11666679382,1.99365246296,2.98612475395,-5.50749397278,-0.270010203123,0.0,0.505253195763
1463677550587334571,5.15000009537,1.81576156616,2.97582769394,-5.16595935822,-0.347823321819,0.0,0.505253195763
1463677550620600095,5.18333339691,1.64853799343,2.96750044823,-4.86745691299,-0.151799142361,0.0,0.505253195763
1463677550679009256,5.21666669846,1.49185097218,2.96334910393,-4.53375959396,-0.0972887724638,0.0,0.505253195763
1463677550686713868,5.25,1.34549403191,2.95543026924,-4.24765825272,-0.377845138311,0.0,0.505253195763
1463677550723065156,5.28333330154,1.20928096771,2.9430475235,-3.92512917519,-0.365113377571,0.0,0.505253195763
1463677550753942513,5.31666660309,1.07117152214,2.90118432045,-4.36143493652,-2.14668560028,0.0,0.505253195763
1463677550788647762,5.34999990463,0.937984406948,2.84343910217,-3.62979316711,-1.31802296638,0.0,0.505253195763
1463677550821132507,5.38333320618,0.827967643738,2.80994844437,-2.97121143341,-0.69141036272,0.0,0.505253195763
1463677550854568943,5.41666650772,0.720462143421,2.76956939697,-3.47911858559,-1.73133790493,0.0,0.505253195763
1463677550897275008,5.44999980927,0.612467348576,2.71758365631,-3.00056743622,-1.38780081272,0.0,0.505253195763
1463677550920753591,5.48333311081,0.517928540707,2.67425942421,-2.67176198959,-1.21165394783,0.0,0.505253195763
1463677550954511452,5.51666688919,0.427285194397,2.62922668457,-2.76683950424,-1.49030947685,0.0,0.505253195763
1463677550987362465,5.55000019073,0.341076314449,2.58375453949,-2.40569376945,-1.23803150654,0.0,0.505253195763
1463677551020608843,5.58333349228,0.269767522812,2.55000638962,-1.87283337116,-0.786848723888,0.0,0.505253195763
1463677551072972745,5.61666679382,0.212283194065,2.52747917175,-1.57622635365,-0.564782619476,0.0,0.505253195763
1463677551087949279,5.65000009537,0.153020620346,2.50075697899,-1.97952711582,-1.03855824471,0.0,0.505253195763
1463677551121709710,5.68333339691,0.0626280978322,2.44092750549,-3.44402456284,-2.55120444298,0.0,0.505253195763
1463677551154142289,5.71666669846,-0.0391497313976,2.36873197556,-2.66264486313,-1.7805314064,0.0,0.505253195763
1463677551188703355,5.75,-0.120692998171,2.31697773933,-2.22995090485,-1.32472109795,0.0,0.505253195763
1463677551222002494,5.78333330154,-0.185212954879,2.28353881836,-1.64124667645,-0.681616902351,0.0,0.505253195763
1463677551254898884,5.81666660309,-0.228091165423,2.27403330803,-0.931445837021,0.111294575036,0.0,0.505253195763
1463677551286429935,5.84999990463,-0.266868203878,2.27111625671,-1.39517712593,-0.286327749491,0.0,0.505253195763
1463677551320510043,5.88333320618,-0.308199971914,2.26855134964,-1.08472847939,0.13243176043,0.0,0.505253195763
1463677551354050105,5.91666650772,-0.324687123299,2.29552507401,0.0954986140132,1.48600435257,0.0,0.505253195763
1463677551387788219,5.94999980927,-0.33080291748,2.33708834648,-0.462445437908,1.00778210163,0.0,0.505253195763
