%time,field.sys_time,field.q0,field.q1,field.dq0,field.dq1,field.sac0,field.u0
1463676026015091977,0.0,0.0,0.0,0.0,0.0,0.0,-0.21149662137
1463676026028479756,0.0166666675359,3.13533473015,-3.17502951622,-0.375480830669,0.377122431993,0.0,-0.21149662137
1463676026062251074,0.0500000007451,3.12783050537,-3.16741418839,-0.074772849679,0.0797963365912,0.0,-0.21149662137
1463676026117370392,0.0833333358169,3.1302280426,-3.16958236694,0.21862693131,-0.209890857339,0.0,-0.21149662137
1463676026128399509,0.116666667163,3.1413166523,-3.18036031723,0.446689575911,-0.436790823936,0.0,-0.21149662137
1463676026161942239,0.15000000596,3.13993668556,-3.17863082886,-0.529477655888,0.540566682816,0.0,-0.21149662137
1463676026194624225,0.183333337307,3.12983393669,-3.16811966896,-0.0766986533999,0.090105034411,0.0,-0.21149662137
1463676026228124438,0.216666668653,3.1240541935,-3.16180539131,-0.27008625865,0.288746714592,0.0,-0.21149662137
1463676026261625770,0.25,3.12395238876,-3.16099524498,0.263979882002,-0.240131109953,0.0,-0.21149662137
1463676026294436297,0.283333331347,3.12889933586,-3.16506505013,0.0328334793448,-0.00406170729548,0.0,-0.21149662137
1463676026327676494,0.316666662693,3.12831902504,-3.16345310211,-0.0676430240273,0.100780695677,0.0,-0.21149662137
1463676026361567268,0.34999999404,3.12970972061,-3.16367506981,0.151084885001,-0.114107899368,0.0,-0.21149662137
1463676026394639313,0.383333325386,3.13430905342,-3.16699314117,0.124869585037,-0.0849659442902,0.0,-0.21149662137
1463676026428205948,0.416666656733,3.13703608513,-3.1683588028,0.0387583747506,0.00301753403619,0.0,-0.21149662137
1463676026461477124,0.449999988079,3.13208341599,-3.16196584702,-0.335925191641,0.380557656288,0.0,-0.21149662137
1463676026530346048,0.483333319426,3.13343048096,-3.1617898941,0.416757434607,-0.370001137257,0.0,-0.21149662137
1463676026537859143,0.516666650772,3.13303685188,-3.15978050232,-0.440374076366,0.490576177835,0.0,-0.21149662137
1463676026562686813,0.550000011921,3.12659597397,-3.15160417557,0.0539141967893,0.0,0.0,-0.21149662137
1463676026596012211,0.583333313465,3.12088322639,-3.14398550987,-0.396675765514,0.457124143839,0.0,-0.21149662137
1463676026627886947,0.616666674614,3.10608029366,-3.12700009346,-0.491503328085,0.561991989613,0.0,-0.21149662137
1463676026661566855,0.649999976158,3.08607292175,-3.10437250137,-0.708933949471,0.79566848278,0.0,-0.21149662137
1463676026716158157,0.683333337307,3.05026769638,-3.06521439552,-1.43937683105,1.55382192135,0.0,-0.21149662137
1463676026728833497,0.716666638851,2.9865591526,-2.99687099457,-2.38314557076,2.54677081108,0.0,-0.21149662137
1463676026762296966,0.75,2.9034948349,-2.90713572502,-2.60070800781,2.83735132217,0.0,-0.21149662137
1463676026795302640,0.783333361149,2.81973433495,-2.8139629364,-2.42492222786,2.75300955772,0.0,-0.21149662137
1463676026830074926,0.816666662693,2.69004940987,-2.66794967651,-5.35617113113,6.00779342651,0.0,-0.21149662137
1463676026862633230,0.850000023842,2.55088353157,-2.5100209713,-2.99378848076,3.46793341637,0.0,-0.21149662137
1463676026921630257,0.883333325386,2.44303154945,-2.38021564484,-3.47732257843,4.32038640976,-22.7555389404,-0.21149662137
1463676026929254998,0.916666686535,2.32128858566,-2.22292733192,-3.82726264,5.11690044403,-22.7555389404,-0.21149662137
1463676026960975301,0.949999988079,2.20048308372,-2.05621886253,-3.42106795311,4.88561010361,-22.7555389404,-0.21149662137
1463676026995127549,0.983333349228,2.06280946732,-1.84125578403,-4.83933925629,8.01218128204,-22.7555389404,-0.21149662137
1463676027029451401,1.01666665077,1.9115973711,-1.58649802208,-4.23339176178,7.27328300476,-22.7555389404,-0.21149662137
1463676027061302223,1.04999995232,1.77614557743,-1.34510338306,-3.89372038841,7.21039390564,-22.7555389404,-0.21149662137
1463676027104532415,1.08333337307,1.64095103741,-1.0268419981,-4.21794843674,11.8852853775,-22.7555389404,-0.21149662137
1463676027135682714,1.11666667461,1.50591623783,-0.727737247944,-3.88414096832,6.06100177765,0.0,-0.21149662137
1463676027162809828,1.14999997616,1.37622785568,-0.569961905479,-3.89716458321,3.40552067757,0.0,-0.21149662137
1463676027195268131,1.1833332777,1.2676461935,-0.394210666418,-2.61772990227,7.13955307007,0.0,-0.21149662137
1463676027228643747,1.21666669846,1.16259551048,-0.223894104362,-3.68531489372,3.07944059372,0.0,-0.21149662137
1463676027262251870,1.25,1.03352308273,-0.14593565464,-4.05902957916,1.59806632996,0.0,-0.21149662137
1463676027318609584,1.28333330154,0.922365307808,-0.0582797788084,-2.61043739319,3.66128635406,0.0,-0.21149662137
1463676027327969395,1.3166667223,0.818574249744,0.0307911392301,-3.6170270443,1.68296873569,0.0,-0.21149662137
1463676027361968514,1.35000002384,0.687813699245,0.0675915703177,-4.2286028862,0.525057137012,0.0,-0.21149662137
1463676027394651835,1.38333332539,0.546774446964,0.080993950367,-4.23375225067,0.279085487127,0.0,-0.21149662137
1463676027429179432,1.41666662693,0.403506547213,0.0849643424153,-4.36232423782,-0.0408617928624,0.0,-0.21149662137
1463676027462146157,1.45000004768,0.26012301445,0.083748459816,-4.24068832397,-0.032091178,0.0,-0.21149662137
1463676027526516683,1.48333334923,0.120838388801,0.0836213380098,-4.11638832092,0.0244637019932,0.0,-0.21149662137
1463676027531092512,1.51666665077,-0.0141397053376,0.0862695872784,-3.9822974205,0.134431421757,0.0,-0.21149662137
1463676027562250719,1.54999995232,-0.145226955414,0.0927342474461,-3.88293719292,0.253447920084,0.0,-0.21149662137
1463676027595172054,1.58333337307,-0.266830325127,0.110214680433,-3.41326522827,0.79537820816,0.0,-0.21149662137
1463676027629163932,1.61666667461,-0.376713037491,0.14255066216,-3.17969799042,1.14478099346,0.0,-0.21149662137
1463676027661578646,1.64999997616,-0.470764160156,0.196228191257,-2.46336913109,2.0758702755,0.0,-0.21149662137
1463676027706690257,1.6833332777,-0.524651646614,0.300779789686,-0.769878745079,4.19722557068,0.0,-0.21149662137
1463676027727532889,1.71666669846,-0.575448215008,0.414644181728,-2.27791571617,2.63463711739,0.0,-0.21149662137
1463676027761214367,1.75,-0.667850315571,0.486080288887,-3.2662127018,1.65152943134,0.0,-0.21149662137
1463676027794551446,1.78333330154,-0.75546246767,0.574144005775,-1.99051558971,3.6322927475,0.0,-0.21149662137
1463676027829623572,1.8166667223,-0.844079971313,0.669020175934,-3.32653284073,2.06027770042,0.0,-0.21149662137
1463676027862539103,1.85000002384,-0.968257665634,0.723034799099,-4.12413167953,1.18060207367,0.0,-0.21149662137
1463676027932052533,1.88333332539,-1.10168230534,0.77929764986,-3.88134884834,2.19516658783,0.0,-0.21149662137
1463676027936964803,1.91666662693,-1.24794125557,0.822035431862,-4.89418649673,0.369100153446,0.0,-0.21149662137
1463676027960892119,1.95000004768,-1.41743147373,0.829254984856,-5.27522706985,0.0640741735697,0.0,-0.21149662137
1463676027994502788,1.98333334923,-1.59902667999,0.823855340481,-5.6204791069,-0.388054013252,0.0,-0.21149662137
1463676028028045105,2.01666665077,-1.79141306877,0.809474945068,-5.92270469666,-0.474769204855,0.0,-0.21149662137
1463676028061178379,2.04999995232,-1.99464809895,0.79633808136,-6.27139759064,-0.313442647457,0.0,-0.21149662137
1463676028112558353,2.08333325386,-2.20958662033,0.788667440414,-6.62491321564,-0.146793991327,0.0,-0.21149662137
1463676028144440608,2.1166665554,-2.43362355232,0.78295558691,-6.81731033325,-0.195916250348,0.0,-0.21149662137
1463676028161501502,2.15000009537,-2.66333413124,0.775989532471,-6.96531295776,-0.222047403455,0.0,-0.21149662137
1463676028194766694,2.18333339691,-2.89422559738,0.765385806561,-6.88818502426,-0.414175659418,0.0,-0.21149662137
1463676028228469233,2.21666669846,-3.12676715851,0.754011809826,-7.06430959702,-0.268267184496,0.0,-0.21149662137
1463676028261452634,2.25,-3.36158323288,0.745157063007,-7.02465581894,-0.263015717268,0.0,-0.21149662137
1463676028294416883,2.28333330154,-3.59252548218,0.735079824924,-6.83187150955,-0.341617465019,0.0,-0.21149662137
1463676028327463733,2.31666660309,-3.81932902336,0.726229190826,-6.77635002136,-0.18942078948,0.0,-0.21149662137
1463676028362586675,2.34999990463,-4.04007577896,0.718338787556,-6.46844053268,-0.284005582333,0.0,-0.21149662137
1463676028395142221,2.3833334446,-4.25140190125,0.709713757038,-6.211145401,-0.233494117856,0.0,-0.21149662137
1463676028428598433,2.41666674614,-4.45434522629,0.705183744431,-5.96544313431,-0.038306966424,0.0,-0.21149662137
1463676028462013636,2.45000004768,-4.64792966843,0.705465555191,-5.64961767197,0.0552130676806,0.0,-0.21149662137
1463676028513394339,2.48333334923,-4.8307299614,0.7055336833,-5.31840419769,-0.0511226691306,0.0,-0.21149662137
1463676028541265939,2.51666665077,-5.003657341,0.698483705521,-5.05723619461,-0.371875405312,35.0,-0.21149662137
1463676028561864315,2.54999995232,-5.16573429108,0.689644098282,-4.66738080978,-0.158502593637,35.0,-0.21149662137
1463676028596192229,2.58333325386,-5.31775188446,0.681896150112,-4.4536690712,-0.306374818087,35.0,-0.21149662137
1463676028628284964,2.6166665554,-5.47146892548,0.656445324421,-4.7693567276,-1.22067546844,35.0,-0.21149662137
1463676028661819588,2.65000009537,-5.62083339691,0.62358635664,-4.1925034523,-0.750860631466,35.0,-0.21149662137
1463676028735838303,2.68333339691,-5.77653360367,0.575649619102,-5.14951086044,-2.12534403801,35.0,-0.21149662137
1463676028741419283,2.71666669846,-5.9304227829,0.521576166153,-4.08385467529,-1.11906206608,0.0,-0.21149662137
1463676028761030234,2.75,-6.06043672562,0.488913863897,-3.71698737144,-0.840676963329,0.0,-0.21149662137
1463676028794547991,2.78333330154,-6.17591238022,0.468412131071,-3.21155548096,-0.389427512884,0.0,-0.21149662137
1463676028829489428,2.81666660309,-6.27349805832,0.464507192373,-2.6435816288,0.155131176114,0.0,-0.21149662137
1463676028862317298,2.84999990463,-6.35745429993,0.473950594664,-2.39377379417,0.411472439766,0.0,-0.21149662137
1463676028923056131,2.8833334446,-6.43389797211,0.491589456797,-2.19284319878,0.646859109402,0.0,-0.21149662137
1463676028932264251,2.91666674614,-6.49788618088,0.523379743099,-1.64647126198,1.26056015491,0.0,-0.21149662137
1463676028962495491,2.95000004768,-6.55687141418,0.562474131584,-1.89262449741,1.08510100842,0.0,-0.21149662137
1463676028994659653,2.98333334923,-6.59094429016,0.630707085133,-0.151744648814,3.00887680054,0.0,-0.21149662137
1463676029028724529,3.01666665077,-6.63599491119,0.690777122974,-2.55131030083,0.595326304436,0.0,-0.21149662137
1463676029061860418,3.04999995232,-6.72059726715,0.713292717934,-2.52482771873,0.755609273911,0.0,-0.21149662137
1463676029133413256,3.08333325386,-6.80295038223,0.74326556921,-2.41635870934,1.04276037216,0.0,-0.21149662137
1463676029145151649,3.1166665554,-6.8880739212,0.77595770359,-2.69106721878,0.91876989603,0.0,-0.21149662137
1463676029161535921,3.15000009537,-6.99320697784,0.791270554066,-3.61690878868,0.0,0.0,-0.21149662137
1463676029195022135,3.18333339691,-7.11668777466,0.79234290123,-3.79193878174,0.0643398761749,0.0,-0.21149662137
1463676029229158681,3.21666669846,-7.24911355972,0.791475057602,-4.15361642838,-0.116411067545,0.0,-0.21149662137
1463676029262493450,3.25,-7.39140129089,0.789010763168,-4.38363838196,-0.0314449667931,0.0,-0.21149662137
1463676029332107562,3.28333330154,-7.54465770721,0.782095074654,-4.81173563004,-0.383495032787,0.0,-0.21149662137
1463676029344149117,3.31666660309,-7.71162366867,0.763043045998,-5.20621919632,-0.759629070759,0.0,-0.21149662137
1463676029363313404,3.34999990463,-7.88972377777,0.75038254261,-5.47979974747,0.0,0.0,-0.21149662137
1463676029394585862,3.3833334446,-8.07732582092,0.748205542564,-5.77633857727,-0.130621731281,0.0,-0.21149662137
1463676029427446034,3.41666674614,-8.27501583099,0.744393110275,-6.08503103256,-0.0981211066246,0.0,-0.21149662137
1463676029461244252,3.45000004768,-8.48126029968,0.738918244839,-6.28966331482,-0.230374127626,0.0,-0.21149662137
1463676029497009424,3.48333334923,-8.69561195374,0.732518136501,-6.57142877579,-0.153631195426,0.0,-0.21149662137
1463676029550012350,3.51666665077,-8.91941452026,0.72960883379,-6.85671234131,-0.0209258142859,0.0,-0.21149662137
1463676029560514036,3.54999995232,-9.1528301239,0.73213994503,-7.148250103,0.172791421413,0.0,-0.21149662137
1463676029595141007,3.58333325386,-9.38980770111,0.735961973667,-7.07039213181,0.0565304867923,0.0,-0.21149662137
1463676029628283106,3.6166665554,-9.61954116821,0.7325335145,-6.71358728409,-0.262239426374,0.0,-0.21149662137
1463676029663467647,3.65000009537,-9.84582519531,0.728305220604,-6.86348056793,0.00854422803968,0.0,-0.21149662137
1463676029717262381,3.68333339691,-10.0713157654,0.72818416357,-6.66597318649,-0.0158091969788,0.0,-0.21149662137
1463676029729000512,3.71666669846,-10.2909069061,0.729422688484,-6.50945711136,0.0901219621301,0.0,-0.21149662137
1463676029762074896,3.75,-10.5017461777,0.729776084423,-6.14088869095,-0.0689191743731,0.0,-0.21149662137
1463676029796412877,3.78333330154,-10.7000389099,0.724245965481,-5.75667762756,-0.262887626886,0.0,-0.21149662137
1463676029828145737,3.81666660309,-10.8869638443,0.718001484871,-5.45884227753,-0.111779600382,0.0,-0.21149662137
1463676029861586319,3.84999990463,-11.063375473,0.715383112431,-5.12585258484,-0.0453257225454,0.0,-0.21149662137
1463676029911296496,3.8833334446,-11.2286930084,0.714140594006,-4.79320764542,-0.0292243584991,0.0,-0.21149662137
1463676029943603440,3.91666674614,-11.3831892014,0.713098466396,-4.47656345367,-0.0333017632365,25.3765544891,-0.21149662137
1463676029961995761,3.95000004768,-11.5282411575,0.710153758526,-4.22652673721,-0.143383204937,25.3765544891,-0.21149662137
1463676029994706804,3.98333334923,-11.6642141342,0.705930054188,-3.93187403679,-0.110038712621,25.3765544891,-0.21149662137
1463676030028675168,4.01666688919,-11.7927560806,0.699839651585,-3.78061962128,-0.255382806063,25.3765544891,-0.21149662137
1463676030061463061,4.05000019073,-11.9169178009,0.688962638378,-3.66912007332,-0.397238433361,25.3765544891,-0.21149662137
1463676030132140814,4.08333349228,-12.0491743088,0.660060763359,-4.2662563324,-1.33687436581,25.3765544891,-0.21149662137
1463676030135512677,4.11666679382,-12.187707901,0.616830945015,-4.04574871063,-1.25691437721,0.0,-0.21149662137
1463676030162383483,4.15000009537,-12.3228597641,0.572764754295,-4.06339359283,-1.38705778122,0.0,-0.21149662137
1463676030194571510,4.18333339691,-12.4548969269,0.528898894787,-3.85882711411,-1.24489307404,0.0,-0.21149662137
1463676030231400164,4.21666669846,-12.5706329346,0.499898850918,-3.08533573151,-0.49511089921,0.0,-0.21149662137
1463676030261625329,4.25,-12.6557893753,0.501293778419,-2.02402591705,0.578804850578,0.0,-0.21149662137
1463676030330506203,4.28333330154,-12.7110004425,0.53354203701,-1.2886595726,1.35609328747,0.0,-0.21149662137
1463676030337263012,4.31666660309,-12.731678009,0.602193117142,0.047995172441,2.76297044754,0.0,-0.21149662137
1463676030361385157,4.34999990463,-12.7594251633,0.665473163128,-1.7128020525,1.03383386135,0.0,-0.21149662137
1463676030394585681,4.38333320618,-12.8104076385,0.707371652126,-1.34615468979,1.48007404804,0.0,-0.21149662137
1463676030428162591,4.41666650772,-12.8505897522,0.763013839722,-1.06478369236,1.85845649242,0.0,-0.21149662137
1463676030462112805,4.44999980927,-12.8856344223,0.827097713947,-1.03789329529,1.9865758419,0.0,-0.21149662137
1463676030544545449,4.48333311081,-12.889339447,0.927890241146,0.815629243851,4.06097698212,0.0,-0.21149662137
1463676030550908845,4.51666688919,-12.8576726913,1.06971359253,1.08436203003,4.44842243195,0.0,-0.21149662137
1463676030560839434,4.55000019073,-12.8944978714,1.14385390282,-3.29389953613,0.0,0.0,-0.21149662137
1463676030594541381,4.58333349228,-12.9570426941,1.19684743881,-0.458793580532,3.17961001396,0.0,-0.21149662137
1463676030628363019,4.61666679382,-12.9902582169,1.28567564487,-1.53411900997,2.15008449554,0.0,-0.21149662137
1463676030661772683,4.65000009537,-13.0467996597,1.35392725468,-1.85834634304,1.9450109005,0.0,-0.21149662137
1463676030695509974,4.68333339691,-13.1001091003,1.43165886402,-1.34023165703,2.71888232231,0.0,-0.21149662137
1463676030731249298,4.71666669846,-13.1861429214,1.47697353363,-3.82183074951,0.0,0.0,-0.21149662137
1463676030761704038,4.75,-13.2727565765,1.53382670879,-1.37495577335,3.41119384766,0.0,-0.21149662137
1463676030795399942,4.78333330154,-13.3363447189,1.62852883339,-2.44036412239,2.27093315125,0.0,-0.21149662137
1463676030828260565,4.81666660309,-13.4372797012,1.68143546581,-3.615691185,0.903465569019,0.0,-0.21149662137
1463676030861569485,4.84999990463,-13.5690021515,1.69994866848,-4.28768157959,0.207322910428,0.0,-0.21149662137
1463676030894840978,4.88333320618,-13.7186136246,1.70260572433,-4.68902301788,-0.0478989593685,0.0,-0.21149662137
1463676030949881675,4.91666650772,-13.8813037872,1.69681715965,-5.07234859467,-0.299412786961,0.0,-0.21149662137
1463676030961481812,4.94999980927,-14.054731369,1.69182693958,-5.33329439163,0.0,0.0,-0.21149662137
1463676030995326630,4.98333311081,-14.2376785278,1.67711699009,-5.64354372025,-0.882599294186,0.0,-0.21149662137
1463676031029021869,5.01666688919,-14.4311113358,1.64857923985,-5.96246004105,-0.829664647579,0.0,-0.21149662137
1463676031062924699,5.05000019073,-14.6338529587,1.61877810955,-6.20204639435,-0.958405733109,0.0,-0.21149662137
1463676031138001705,5.08333349228,-14.8415651321,1.5810033083,-6.26065969467,-1.30808103085,0.0,-0.21149662137
1463676031143283867,5.11666679382,-15.0458126068,1.52636861801,-5.99418544769,-1.96999788284,0.0,-0.21149662137
1463676031161564518,5.15000009537,-15.2640094757,1.47925591469,-7.09760856628,-0.856763482094,0.0,-0.21149662137
1463676031194845023,5.18333339691,-15.5029449463,1.45157051086,-7.23853302002,-0.804364681244,0.0,-0.21149662137
1463676031228452577,5.21666669846,-15.7319993973,1.41223120689,-6.5047249794,-1.55599367619,0.0,-0.21149662137
1463676031261489903,5.25,-15.9639873505,1.376552701,-7.41456747055,-0.584717333317,0.0,-0.21149662137
1463676031294594346,5.28333330154,-16.2126731873,1.36106657982,-7.50661277771,-0.344448059797,0.0,-0.21149662137
1463676031332366715,5.31666660309,-16.4616584778,1.35222315788,-7.43241977692,-0.186154097319,0.0,-0.21149662137
1463676031362655665,5.34999990463,-16.6994838715,1.33731877804,-6.83710670471,-0.708109200001,0.0,-0.21149662137
1463676031395591184,5.38333320618,-16.9237880707,1.31683754921,-6.62115764618,-0.520769536495,0.0,-0.21149662137
1463676031429328162,5.41666650772,-17.139257431,1.3002396822,-6.30702352524,-0.475102841854,0.0,-0.21149662137
1463676031462103066,5.44999980927,-17.3439102173,1.28433775902,-5.972219944,-0.479012191296,0.0,-0.21149662137
1463676031513508115,5.48333311081,-17.5379695892,1.26539862156,-5.67124223709,-0.657336771488,0.0,-0.21149662137
1463676031544414511,5.51666688919,-17.7261352539,1.23094785213,-5.61870861053,-1.40970909595,0.0,-0.21149662137
1463676031561701367,5.55000019073,-17.902217865,1.19633626938,-4.94623041153,-0.666984081268,0.0,-0.21149662137
1463676031594656622,5.58333349228,-18.0696430206,1.16363418102,-5.09936523438,-1.29513776302,0.0,-0.21149662137
1463676031629534067,5.61666679382,-18.2331180573,1.12419831753,-4.70909166336,-1.07101643085,0.0,-0.21149662137
1463676031661743253,5.65000009537,-18.3898983002,1.08533799648,-4.69769001007,-1.26060581207,0.0,-0.21149662137
1463676031735733266,5.68333339691,-18.5394306183,1.04857170582,-4.27430200577,-0.945365905762,0.0,-0.21149662137
1463676031742547806,5.71666669846,-18.6606674194,1.03740668297,-2.99990701675,0.275463789701,0.0,-0.21149662137
1463676031762366436,5.75,-18.764383316,1.04199779034,-3.22307682037,0.0,0.0,-0.21149662137
1463676031794844817,5.78333330154,-18.8342227936,1.07930791378,-0.967258572578,2.2386071682,0.0,-0.21149662137
1463676031828375151,5.81666660309,-18.8817119598,1.13866829872,-1.88209950924,1.32301902771,0.0,-0.21149662137
1463676031861968884,5.84999990463,-18.9315128326,1.19601643085,-1.10594522953,2.11786651611,0.0,-0.21149662137
