%time,field.sys_time,field.q0,field.q1,field.dq0,field.dq1,field.sac0,field.u0
1463693152936501424,0.0,0.0,0.0,0.0,0.0,0.0,0.0
1463693152940119143,0.00833333376795,3.14159274101,-1.67901563644,0.0,0.0,0.0,0.0
1463693152947179947,0.0250000003725,3.1412627697,-1.67835307121,-0.0395724885166,0.0795017033815,0.0,0.0
1463693152963553850,0.0416666679084,3.14028573036,-1.67638611794,-0.0776986405253,0.156535282731,0.0,-0.0795017033815
1463693152979714022,0.0583333335817,3.13925814629,-1.67430639267,-0.0456115566194,0.0930388346314,0.0,-0.0770335868001
1463693152997275667,0.0750000029802,3.13888716698,-1.67353105545,0.00110908201896,0.0,0.0,0.0634964555502
1463693153031563969,0.0916666686535,3.13800549507,-1.67171895504,-0.106914065778,0.21745236218,0.0,0.0930388346314
1463693153036125627,0.108333334327,3.13713216782,-1.66990685463,0.00213113659993,0.0,0.0,-0.21745236218
1463693153046292833,0.125,3.13686418533,-1.66929090023,-0.0343037582934,0.0739075690508,0.0,0.21745236218
1463693153063187913,0.141666665673,3.13571476936,-1.66688942909,-0.10361995548,0.214272215962,0.0,-0.0739075690508
1463693153080596938,0.158333331347,3.13488483429,-1.66510379314,0.00401147920638,0.0,0.0,-0.140364646912
1463693153096865591,0.17499999702,3.13506340981,-1.66531980038,0.0174383949488,-0.0259176082909,0.0,0.214272215962
1463693153115027161,0.191666662693,3.13525032997,-1.66553580761,0.00498520117253,0.0,0.0,0.0259176082909
1463693153130117518,0.208333328366,3.13615918159,-1.66718661785,0.104081690311,-0.198101520538,0.0,-0.0259176082909
1463693153146441676,0.22499999404,3.13699507713,-1.66868364811,-0.00377383246087,0.0184631757438,0.0,0.198101520538
1463693153164968793,0.241666659713,3.1373500824,-1.66920888424,0.0463720671833,-0.0814934596419,0.0,-0.216564700007
1463693153180280254,0.258333325386,3.13778591156,-1.66988801956,0.0059299422428,0.0,0.0,0.0999566316605
1463693153197055136,0.27500000596,3.13760185242,-1.66931474209,-0.0280254818499,0.0687823146582,0.0,-0.0814934596419
1463693153231988690,0.291666656733,3.13748550415,-1.66886520386,0.0140509940684,-0.0148264542222,0.0,-0.0687823146582
1463693153235086670,0.308333337307,3.13766026497,-1.66898870468,0.00693753780797,0.0,-20.0,0.0836087688804
1463693153247051005,0.324999988079,3.13807964325,-1.66959404945,0.0433805212379,-0.0726393535733,-20.0,-0.0148264542222
1463693153263095532,0.341666668653,3.13856744766,-1.67033088207,0.0151555761695,-0.0157809797674,-20.0,0.0726393535733
1463693153280157688,0.358333319426,3.13921689987,-1.67138838768,0.0627872273326,-0.111126370728,-20.0,-0.0568583756685
1463693153297003049,0.375,3.13980150223,-1.67231452465,0.00736376736313,0.0,-20.0,0.0953453928232
1463693153313168337,0.391666680574,3.14012551308,-1.67271673679,0.0315022878349,-0.0482732616365,-20.0,-0.111126370728
1463693153331415607,0.408333331347,3.14115738869,-1.67454051971,0.0923446789384,-0.17057210207,-20.0,0.0482732616365
1463693153347560411,0.425000011921,3.14198565483,-1.67596185207,0.00703103840351,0.0,-20.0,0.122298836708
1463693153365079537,0.441666662693,3.14155864716,-1.67486965656,-0.0582737661898,0.131065890193,-20.0,-0.17057210207
1463693153380487744,0.458333343267,3.14179611206,-1.67510890961,0.0867745354772,-0.15976767242,-20.0,-0.131065890193
1463693153397339342,0.47499999404,3.14257597923,-1.67644023895,0.00681381346658,0.0,-20.0,0.290833562613
1463693153432115979,0.491666674614,3.14407777786,-1.67923104763,0.173397734761,-0.334896206856,-20.0,-0.15976767242
1463693153437029743,0.508333325386,3.14557003975,-1.68202185631,0.00566300749779,0.0,0.0,0.334896206856
1463693153446159096,0.524999976158,3.14534258842,-1.68138158321,-0.032931022346,0.0768314003944,0.0,-0.334896206856
1463693153463547604,0.541666686535,3.14372158051,-1.67794942856,-0.161595702171,0.33502805233,0.0,-0.0768314003944
1463693153480140594,0.558333337307,3.14242315292,-1.675157547,0.00577339297161,0.0,0.0,-0.258196651936
1463693153496988508,0.574999988079,3.13940167427,-1.66889584064,-0.368341654539,0.751407563686,0.0,0.33502805233
1463693153513211444,0.591666638851,3.13639569283,-1.66263413429,0.00762889394537,0.0,0.0,-0.751407563686
1463693153529939338,0.608333349228,3.13065958023,-1.65084803104,-0.695977330208,1.41432571411,0.0,0.751407563686
1463693153546344949,0.625,3.11778092384,-1.62463521957,-0.849446475506,1.73120772839,0.0,-1.41432571411
1463693153563041840,0.641666650772,3.10037612915,-1.58915412426,-1.23914062977,2.52652525902,0.0,-0.316881984472
1463693153580714465,0.658333361149,3.07617592812,-1.53975343704,-1.66487801075,3.40155625343,0.0,-0.795317411423
1463693153596927484,0.675000011921,3.06260585785,-1.51140713692,0.0364651456475,0.0,0.0,-0.875031113625
1463693153614647148,0.691666662693,3.03902506828,-1.46257054806,-2.86614847183,5.86039972305,0.0,3.40155625343
1463693153635581868,0.708333313465,2.99579262733,-1.37370431423,-2.32175803185,4.80354690552,0.0,-5.86039972305
1463693153646566163,0.725000023842,2.97694611549,-1.33367478848,0.0601686052978,0.0,0.0,1.05685305595
1463693153664589450,0.741666674614,2.94067215919,-1.25759518147,-4.41303300858,9.12954425812,0.0,4.80354690552
1463693153679858125,0.758333325386,2.9042634964,-1.18151569366,0.0439930856228,0.0,0.0,-9.12954425812
1463693153696480400,0.774999976158,2.86071753502,-1.08976364136,-5.26951217651,11.0102386475,0.0,9.12954425812
1463693153713114884,0.791666686535,2.78339791298,-0.927634716034,-4.00883674622,8.44523715973,0.0,-11.0102386475
1463693153731135002,0.808333337307,2.71377325058,-0.77991849184,-4.34613704681,9.28070545197,0.0,2.56500172615
1463693153746636453,0.824999988079,2.67624044418,-0.702579319477,-0.157776936889,0.0,0.0,-0.835467934608
1463693153763179150,0.841666638851,2.61688017845,-0.574478566647,-6.96546030045,15.3720874786,0.0,9.28070545197
1463693153780530233,0.858333349228,2.51753377914,-0.356942623854,-4.9561009407,10.7322282791,0.0,-15.3720874786
1463693153796411662,0.875,2.47057628632,-0.267507374287,-0.678801357746,0.0,0.0,4.63985824585
1463693153837076370,0.891666650772,2.40393662453,-0.124058365822,-7.31795406342,17.2138805389,0.0,10.7322282791
1463693153842714833,0.908333361149,2.29723763466,0.121182732284,-5.48594045639,12.2150506973,0.0,-17.2138805389
1463693153846378214,0.925000011921,2.23844838142,0.222974821925,-1.56877243519,0.0,0.0,4.99883079529
1463693153863145735,0.941666662693,2.16836547852,0.369665443897,-6.84118461609,17.6028747559,0.0,12.2150506973
1463693153882737615,0.958333313465,2.06840229034,0.611539781094,-5.1543841362,11.4220485687,0.0,-17.6028747559
1463693153896722660,0.975000023842,2.00411367416,0.706723511219,-2.56025457382,0.0,0.0,6.1808257103
1463693153913177075,0.991666674614,1.93718314171,0.831852972507,-5.47140979767,15.0155334473,0.0,11.4220485687
1463693153930566365,1.00833332539,1.86649155617,0.956982433796,-3.01158022881,0.0,0.0,-15.0155334473
1463693153947008264,1.02499997616,1.8043602705,1.05231642723,-4.44416570663,11.440076828,0.0,15.0155334473
1463693153962334644,1.04166662693,1.74038517475,1.14765036106,-3.23284888268,0.0,0.0,-11.440076828
1463693153979290925,1.0583332777,1.68215334415,1.22015011311,-3.75496768951,8.69996929169,0.0,11.440076828
1463693153997083769,1.07500004768,1.62326526642,1.29264986515,-3.31160187721,0.0,0.0,-8.69996929169
1463693154013105953,1.09166669846,1.56828403473,1.33951485157,-3.28615403175,5.62379646301,0.0,8.69996929169
1463693154038311910,1.10833334923,1.51395559311,1.40967822075,-3.23325395584,2.79581022263,0.0,-5.62379646301
1463693154046280946,1.125,1.45988452435,1.43297660351,-3.25527667999,0.0,0.0,2.82798647881
1463693154063085202,1.14166665077,1.40811181068,1.45774328709,-2.95745062828,2.97199225426,0.0,2.79581022263
1463693154079608738,1.15833330154,1.35864543915,1.4970972538,-2.97851204872,1.75049519539,0.0,-2.97199225426
1463693154097715922,1.17499995232,1.30806005001,1.51168477535,-3.09173107147,0.0,0.0,1.22149717808
1463693154113451829,1.1916667223,1.25813639164,1.51766812801,-2.899112463,0.718007683754,0.0,1.75049519539
1463693154129819653,1.20833337307,1.21018326283,1.52735722065,-2.85525369644,0.44467613101,0.0,-0.718007683754
1463693154146167576,1.22500002384,1.16263103485,1.53106284142,-2.85101294518,0.0,0.0,0.273331582546
1463693154162896764,1.24166667461,1.11616289616,1.53266477585,-2.72517108917,0.192232713103,0.0,0.44467613101
1463693154180581337,1.25833332539,1.07082855701,1.53319621086,-2.71494913101,-0.12845954299,0.0,-0.192232713103
1463693154196655643,1.27499997616,1.02652728558,1.53212571144,-2.60120344162,0.0,0.0,0.320692270994
1463693154239404401,1.29166662693,0.983549416065,1.5310510397,-2.55614042282,-0.128961458802,0.0,-0.12845954299
1463693154247480486,1.3083332777,0.94170153141,1.52928590775,-2.46560907364,-0.0828594118357,0.0,0.128961458802
1463693154255016459,1.32500004768,0.901407063007,1.5284807682,-2.36972427368,-0.013749317266,0.0,-0.0461020506918
1463693154263452570,1.34166669846,0.862553536892,1.52836620808,-2.29270005226,0.0,0.0,-0.0691100955009
1463693154280330601,1.35833334923,0.825335204601,1.52959597111,-2.17349815369,0.147569105029,0.0,-0.013749317266
1463693154296790235,1.375,0.789251923561,1.53082573414,-2.15649557114,0.0,0.0,-0.147569105029
1463693154313565463,1.39166665077,0.754256427288,1.5319416523,-2.04296469688,0.133910804987,0.0,0.147569105029
1463693154331597808,1.40833330154,0.72032225132,1.53305757046,-2.02913498878,0.0,0.0,-0.133910804987
1463693154347184088,1.42499995232,0.686504721642,1.53172123432,-2.02896904945,-0.160362765193,0.0,0.133910804987
1463693154363449570,1.4416667223,0.653149604797,1.5289709568,-1.97364544868,-0.169666320086,0.0,0.160362765193
1463693154379925194,1.45833337307,0.620850026608,1.52644991875,-1.90230083466,-0.132856816053,0.0,0.00930355489254
1463693154396553061,1.47500002384,0.590050339699,1.52534282207,-1.79366183281,0.0,0.0,-0.0368095077574
1463693154431302265,1.49166667461,0.559317231178,1.52230477333,-1.89431393147,-0.3645593822,0.0,-0.132856816053
1463693154436949990,1.50833332539,0.5272808671,1.51416277885,-1.95004665852,-0.612486064434,0.0,0.3645593822
1463693154446879118,1.52499997616,0.497397124767,1.50905871391,-1.63600647449,0.0,0.0,0.247926652431
1463693154462973557,1.54166662693,0.468389481306,1.5042668581,-1.84490919113,-0.575013875961,0.0,-0.612486064434
1463693154479745287,1.5583332777,0.434077978134,1.48592352867,-2.27247166634,-1.6261920929,0.0,0.575013875961
1463693154496843710,1.57500004768,0.402733266354,1.47237193584,-1.48889279366,0.0,0.0,1.05117821693
1463693154513326528,1.59166669846,0.371094346046,1.45688760281,-2.30777621269,-1.85812354088,0.0,-1.6261920929
1463693154530038733,1.60833334923,0.329293727875,1.41811263561,-2.70830106735,-2.79486465454,0.0,1.85812354088
1463693154546642465,1.625,0.295515984297,1.39482212067,-1.34502601624,0.0,0.0,0.936741173267
1463693154563653392,1.64166665077,0.265107065439,1.37761378288,-2.30404567719,-2.06499791145,0.0,-2.79486465454
1463693154580454633,1.65833330154,0.222159445286,1.33328306675,-2.84966874123,-3.25468730927,0.0,2.06499791145
1463693154596265644,1.67499995232,0.188145369291,1.3061606884,-1.23201918602,0.0,0.0,1.18968939781
1463693154616444116,1.6916667223,0.156577423215,1.28332579136,-2.55613446236,-2.74019360542,0.0,-3.25468730927
1463693154657947201,1.70833337307,0.119116023183,1.24770402908,-1.93923377991,-1.53441512585,0.0,2.74019360542
1463693154662842485,1.72500002384,0.0929821059108,1.23433947563,-1.19683659077,-0.0693368911743,0.0,-1.20577847958
1463693154668562837,1.74166667461,0.0734193176031,1.23376166821,-1.15069770813,0.0,0.0,-1.46507823467
1463693154681512285,1.75833332539,0.0543027929962,1.23371875286,-1.14328539371,-0.00514667155221,0.0,-0.0693368911743
1463693154697469699,1.77499997616,0.0353392995894,1.23367583752,-1.13233375549,0.0,0.0,0.00514667155221
1463693154714113982,1.79166662693,0.0171063039452,1.23484563828,-1.05562579632,0.140373900533,0.0,-0.00514667155221
1463693154730116796,1.8083332777,-0.0010279705748,1.23601543903,-1.12048709393,0.0,0.0,-0.140373900533
1463693154746668689,1.82500004768,-0.0181088969111,1.23915171623,-0.929224073887,0.376355916262,0.0,0.140373900533
1463693154763983482,1.84166669846,-0.0332282073796,1.2461335659,-0.885093271732,0.461465150118,0.0,-0.376355916262
1463693154780849027,1.85833334923,-0.0498906113207,1.24997913837,-1.11439502239,0.0,0.0,-0.0851092264056
1463693154797139162,1.875,-0.065821364522,1.25529670715,-0.797295749187,0.638111174107,0.0,0.461465150118
1463693154813888015,1.89166665077,-0.0806799903512,1.26281428337,-0.985738873482,0.263999223709,0.0,-0.638111174107
1463693154845807260,1.90833330154,-0.097190104425,1.26710343361,-0.995474696159,0.250701010227,0.0,0.3741119802
1463693154852368929,1.92499995232,-0.114853218198,1.26919257641,-1.12409961224,0.0,0.0,0.0132982200012
1463693154862746979,1.9416667223,-0.13446290791,1.26751446724,-1.22906255722,-0.201381385326,0.0,0.250701010227
1463693154880420631,1.95833337307,-0.154725626111,1.26472008228,-1.20246398449,-0.133946031332,0.0,0.201381385326
1463693154896556730,1.97500002384,-0.17428791523,1.2636038065,-1.14501070976,0.0,0.0,-0.0674353539944
1463693154913238929,1.99166667461,-0.193506255746,1.26350092888,-1.16119074821,-0.0123474849388,0.0,-0.133946031332
1463693154929942445,2.0083334446,-0.212370708585,1.26449525356,-1.10254192352,0.131670564413,0.0,0.0123474849388
1463693154947070239,2.02500009537,-0.231390580535,1.26559257507,-1.17984414101,0.0,0.0,-0.144018054008
1463693154963394205,2.04166674614,-0.246689841151,1.27486753464,-0.656067192554,1.1130065918,0.0,0.131670564413
1463693154980139775,2.05833339691,-0.262244701385,1.28414261341,-1.21051442623,0.0,0.0,-1.1130065918
1463693154996672500,2.07500004768,-0.273827284575,1.30234718323,-0.179395839572,2.18454933167,0.0,1.1130065918
1463693155032198953,2.09166669846,-0.27840217948,1.33582162857,-0.369593322277,1.83237791061,0.0,-2.18454933167
1463693155035675069,2.10833334923,-0.292044222355,1.35109138489,-1.26745021343,0.0,0.0,0.352171331644
1463693155046369547,2.125,-0.302202165127,1.3744893074,0.0484977774322,2.80774259567,0.0,1.83237791061
1463693155063725439,2.14166665077,-0.30688098073,1.41017460823,-0.609956502914,1.4745016098,0.0,-2.80774259567
1463693155080095782,2.15833330154,-0.318201899529,1.43270814419,-0.748552381992,1.22951436043,0.0,1.33324086666
1463693155096415943,2.17499995232,-0.335705399513,1.44295406342,-1.35186970234,0.0,0.0,0.244987353683
1463693155113566458,2.19166660309,-0.35434409976,1.45165669918,-0.884775042534,1.04432010651,0.0,1.22951436043
1463693155130573332,2.20833325386,-0.373594760895,1.45984303951,-1.42530274391,-0.0619682408869,0.0,-1.04432010651
1463693155146908396,2.22499990463,-0.397317290306,1.45932662487,-1.42140197754,0.0,0.0,1.10628843307
1463693155162915582,2.2416665554,-0.42297065258,1.45551371574,-1.65699970722,-0.457543253899,0.0,-0.0619682408869
1463693155181045295,2.2583334446,-0.450888186693,1.44773042202,-1.69310522079,-0.476456224918,0.0,0.457543253899
1463693155197310142,2.27500009537,-0.477584540844,1.44375991821,-1.51045620441,0.0,0.0,0.0189129691571
1463693155240392567,2.29166674614,-0.505205094814,1.43880152702,-1.80401468277,-0.595011770725,0.0,-0.476456224918
1463693155248778347,2.30833339691,-0.535070776939,1.42998623848,-1.77986502647,-0.462820261717,0.0,0.595011770725
1463693155252543871,2.32500004768,-0.563390314579,1.42612946033,-1.61847686768,0.0,0.0,-0.132191509008
1463693155264002657,2.34166669846,-0.593397080898,1.41961944103,-1.98233377934,-0.781193315983,0.0,-0.462820261717
1463693155280327759,2.35833334923,-0.626205265522,1.40794849396,-1.95465159416,-0.619329750538,0.0,0.781193315983
1463693155297022307,2.375,-0.657063484192,1.40278732777,-1.74833679199,0.0,0.0,-0.161863595247
1463693155313712020,2.39166665077,-0.689406692982,1.39549791813,-2.13284301758,-0.874733328819,0.0,-0.619329750538
1463693155331848006,2.40833330154,-0.73099899292,1.36592769623,-2.85823488235,-2.67369222641,0.0,0.874733328819
1463693155347275321,2.42499995232,-0.770916938782,1.34364688396,-1.93192088604,0.0,0.0,1.79895877838
1463693155363162209,2.44166660309,-0.813591897488,1.31503748894,-3.18907141685,-3.43313336372,0.0,-2.67369222641
1463693155381716680,2.45833325386,-0.865031480789,1.2641531229,-2.98367977142,-2.67299509048,0.0,3.43313336372
1463693155397625271,2.47499990463,-0.908197820187,1.24187815189,-2.19628334045,0.0,0.0,-0.760138213634
1463693155432901381,2.4916665554,-0.955194056034,1.20871174335,-3.44326615334,-3.97995996475,0.0,-2.67299509048
1463693155442448515,2.5083334446,-1.01400077343,1.13885223866,-3.61354064941,-4.40318632126,0.0,3.97995996475
1463693155447931391,2.52500009537,-1.06549799442,1.10215902328,-2.56612610817,0.0,0.0,0.423226475716
1463693155463242823,2.54166674614,-1.11472117901,1.07652008533,-3.34064602852,-3.07667779922,0.0,-4.40318632126
1463693155480705822,2.55833339691,-1.16559576988,1.05088102818,-2.76431107521,0.0,0.0,3.07667779922
1463693155497200486,2.57500004768,-1.21876478195,1.01555502415,-3.61596775055,-4.2391295433,0.0,-3.07667779922
1463693155513950933,2.59166669846,-1.27724134922,0.959542512894,-3.40122413635,-2.48236274719,0.0,4.2391295433
1463693155530935488,2.60833334923,-1.33176410198,0.938856184483,-3.14150381088,0.0,0.0,-1.75676679611
1463693155547023523,2.625,-1.38755726814,0.911484718323,-3.5536711216,-3.28457784653,0.0,-2.48236274719
1463693155564306808,2.64166665077,-1.44635736942,0.86952984333,-3.50234222412,-1.75000739098,0.0,3.28457784653
1463693155579706453,2.65833330154,-1.50459265709,0.854946434498,-3.48589873314,0.0,0.0,-1.53457045555
1463693155597126513,2.67499995232,-1.56362915039,0.834347784519,-3.59848332405,-2.47183728218,0.0,-1.75000739098
1463693155613763367,2.69166660309,-1.62425172329,0.801461458206,-3.6762213707,-1.47452402115,0.0,2.47183728218
1463693155645372060,2.70833325386,-1.68600571156,0.775337100029,-3.73425674438,-1.6603975296,20.0,-0.997313320637
1463693155651245458,2.72499990463,-1.74978995323,0.761500418186,-3.9198486805,0.0,20.0,0.185873493552
1463693155662904515,2.7416665554,-1.81564807892,0.761500418186,-3.9831302166,0.0,20.0,-1.6603975296
1463693155679729114,2.7583334446,-1.88113832474,0.751191794872,-3.87569618225,-1.23703730106,20.0,0.0
1463693155697042855,2.77500009537,-1.94709444046,0.735693514347,-4.03903388977,-0.622758448124,20.0,1.23703730106
1463693155713796801,2.79166674614,-2.01506090164,0.72615647316,-4.11694669724,-0.521685063839,20.0,-0.61427885294
1463693155729850429,2.80833339691,-2.08513331413,0.721809089184,-4.2917470932,0.0,20.0,-0.101073339581
1463693155746339076,2.82500004768,-2.15589118004,0.717197775841,-4.19918012619,-0.553359389305,20.0,-0.521685063839
1463693155764246641,2.84166669846,-2.22738051414,0.711763441563,-4.37954473495,-0.0987601801753,20.0,0.553359389305
1463693155780396327,2.85833334923,-2.30076241493,0.710179030895,-4.42630052567,-0.0913658887148,20.0,-0.454599201679
1463693155797223470,2.875,-2.37513232231,0.709417700768,-4.498087883,0.0,20.0,-0.00739428726956
1463693155838075227,2.89166665077,-2.45025873184,0.709046661854,-4.51706123352,-0.0445241592824,0.0,-0.0913658887148
1463693155841767658,2.90833330154,-2.52564382553,0.707911908627,-4.52914714813,-0.0916469544172,0.0,0.0445241592824
1463693155847458588,2.92499995232,-2.60166192055,0.707148134708,-4.59303855896,0.0,0.0,0.0471227951348
1463693155863129300,2.94166660309,-2.67837977409,0.707148134708,-4.61309432983,0.0,0.0,-0.0916469544172
1463693155879939901,2.95833325386,-2.75530958176,0.70698350668,-4.61850500107,-0.0197601485997,0.0,0.0
1463693155896301504,2.97499990463,-2.83213448524,0.706180989742,-4.60047292709,-0.0765425041318,0.0,0.0197601485997
1463693155914011804,2.9916665554,-2.90913772583,0.705543100834,-4.63990497589,0.0,0.0,0.0567823573947
1463693155931691366,3.0083334446,-2.98623847961,0.70513176918,-4.61219120026,-0.0493624322116,0.0,-0.0765425041318
1463693155947147478,3.02500009537,-3.0632314682,0.704720377922,-4.62696695328,0.0,0.0,0.0493624322116
