%time,field.sys_time,field.q0,field.q1,field.dq0,field.dq1,field.sac0,field.u0
1463693461374295182,0.0,0.0,0.0,0.0,0.0,0.0,0.898519039154
1463693461386657955,0.00833333376795,3.14176106453,2.98461604118,0.020207868889,-0.0405979044735,0.0,0.0
1463693461402506366,0.0250000003725,3.14192843437,2.98427772522,-0.000111230176117,0.0,0.0,0.0405979044735
1463693461434770123,0.0416666679084,3.1435687542,2.98097801208,0.196951135993,-0.395954489708,0.0,-0.0405979044735
1463693461439516196,0.0583333335817,3.1451997757,2.97767853737,-0.00124809681438,0.0,0.0,0.395954489708
1463693461451753806,0.0750000029802,3.14517641068,2.97767853737,-0.00153562682681,0.0,0.0,-0.395954489708
1463693461469440774,0.0916666686535,3.14639234543,2.97517991066,0.147422447801,-0.299831718206,0.0,0.0
1463693461485834004,0.108333334327,3.14607691765,2.97573399544,-0.185251742601,0.366312921047,0.0,0.299831718206
1463693461504002863,0.125,3.14610219002,2.97559452057,0.188271164894,-0.38303938508,0.0,-0.666144609451
1463693461519344948,0.141666665673,3.14764046669,2.97240257263,-0.00366150471382,0.0,0.0,0.74935233593
1463693461536547861,0.158333331347,3.14476370811,2.97805142403,-0.341549754143,0.67787861824,0.0,-0.38303938508
1463693461552946394,0.17499999702,3.14189481735,2.98370051384,-0.00273964367807,0.0,0.0,-0.67787861824
1463693461569871181,0.191666662693,3.14282894135,2.98173141479,0.114858441055,-0.236278995872,0.0,0.67787861824
1463693461586607745,0.208333328366,3.14328241348,2.98071742058,-0.0604466199875,0.114596351981,0.0,0.236278995872
1463693461602293166,0.22499999404,3.14275169373,2.98167252541,-0.00325137749314,0.0,0.0,-0.350875347853
1463693461638412604,0.241666659713,3.14161252975,2.98385095596,-0.133449807763,0.261412590742,0.0,0.114596351981
1463693461642554183,0.258333325386,3.13927769661,2.98844099045,-0.146737664938,0.289398699999,0.0,-0.261412590742
1463693461652311280,0.27500000596,3.13803982735,2.99085259438,-0.00179179862607,0.0,0.0,-0.0279861111194
1463693461673986483,0.291666656733,3.13624668121,2.99440002441,-0.213387817144,0.425699770451,0.0,0.289398699999
1463693461686142414,0.308333337307,3.13446807861,2.99794769287,-3.31306619046e-05,0.0,0.0,-0.425699770451
1463693461703118216,0.324999988079,3.1318936348,3.00312876701,-0.308913975954,0.621724963188,0.0,0.425699770451
1463693461720396333,0.341666668653,3.13096261024,3.00505542755,0.197183802724,-0.390525519848,0.0,-0.621724963188
1463693461736927285,0.358333319426,3.13262844086,3.00180101395,0.002718239557,0.0,0.0,1.01225054264
1463693461753746883,0.375,3.13316631317,3.00082325935,0.0618279017508,-0.117317564785,0.0,-0.390525519848
1463693461770746042,0.391666680574,3.13371324539,2.99984574318,0.0038215117529,0.0,0.0,0.117317564785
1463693461786911688,0.408333331347,3.13611769676,2.99515342712,0.284713447094,-0.56308054924,0.0,-0.117317564785
1463693461804623586,0.425000011921,3.13851976395,2.99046087265,0.00350851030089,0.0,0.0,0.56308054924
1463693461831090694,0.441666662693,3.15199184418,2.96351885796,1.61315906048,-3.23306584358,-20.0,-0.56308054924
1463693461837359993,0.458333343267,3.1779062748,2.91144156456,1.49657785892,-3.01618885994,-20.0,3.23306584358
1463693461854443379,0.47499999404,3.19026732445,2.8863067627,-0.0132571356371,0.0,-20.0,-0.216876804829
1463693461870192897,0.491666674614,3.21682620049,2.83239579201,3.20033049583,-6.46929836273,-20.0,-3.01618885994
1463693461885859789,0.508333325386,3.26612901688,2.7323551178,2.71599006653,-5.53559064865,-20.0,6.46929836273
1463693461902657466,0.524999976158,3.31707406044,2.6281812191,3.39741611481,-6.96528863907,-20.0,-0.933707535267
1463693461919614388,0.541666686535,3.34513735771,2.57013702393,-0.0298044960946,0.0,-20.0,1.42969763279
1463693461935826463,0.558333337307,3.39860057831,2.45933222771,6.4453830719,-13.2965841293,-20.0,-6.96528863907
1463693461952484568,0.574999988079,3.45300340652,2.34852743149,0.082963347435,0.0,-20.0,13.2965841293
1463693461969457144,0.591666638851,3.52039718628,2.20904111862,8.00427818298,-16.7383499146,-20.0,-13.2965841293
1463693461985806336,0.608333349228,3.59043574333,2.06955480576,0.400339305401,0.0,-20.0,16.7383499146
1463693462003059782,0.625,3.66762399673,1.91179132462,8.86225795746,-18.9316291809,-20.0,-16.7383499146
1463693462037654342,0.641666650772,3.79815745354,1.63611996174,6.80175924301,-14.1489362717,0.0,18.9316291809
1463693462041983005,0.658333361149,3.93404078484,1.33902096748,9.50423240662,-21.5029354095,0.0,-4.7826924324
1463693462052206925,0.675000011921,4.03399801254,1.15982985497,2.49063110352,0.0,0.0,7.3539981842
1463693462069305047,0.691666662693,4.10871887207,1.04879784584,6.47590589523,-13.3238477707,0.0,-21.5029354095
1463693462085717872,0.708333313465,4.1869263649,0.937765777111,2.90899038315,0.0,0.0,13.3238477707
1463693462102213568,0.725000023842,4.27015733719,0.789841890335,7.07868862152,-17.7508640289,0.0,-13.3238477707
1463693462119040494,0.741666674614,4.38384532928,0.512243151665,6.56389904022,-15.5609798431,0.0,17.7508640289
1463693462137183963,0.758333325386,4.4748749733,0.382568329573,4.35965013504,0.0,0.0,-2.18988490105
1463693462152426286,0.774999976158,4.55764818192,0.272842168808,5.57310676575,-13.1671390533,0.0,-15.5609798431
1463693462169393351,0.791666686535,4.64375305176,0.163116022944,4.75952720642,0.0,0.0,13.1671390533
1463693462185883131,0.808333337307,4.72346973419,0.0776229053736,4.80645704269,-10.2591753006,0.0,-13.1671390533
1463693462203020055,0.824999988079,4.80385971069,-0.0491292998195,4.84031009674,-4.95108985901,0.0,10.2591753006
1463693462247058442,0.841666638851,4.8863940239,-0.0903883874416,5.063808918,0.0,0.0,-5.30808496475
1463693462251520187,0.858333349228,4.96433830261,-0.142914965749,4.28952598572,-6.30318975449,0.0,-4.95108985901
1463693462256177198,0.875,5.0424580574,-0.195441544056,5.08485412598,0.0,0.0,6.30318975449
1463693462269734774,0.891666650772,5.11874341965,-0.237658292055,4.06938266754,-5.06600999832,0.0,-6.30318975449
1463693462286168323,0.908333361149,5.18982362747,-0.303197354078,4.46025133133,-2.79867649078,0.0,5.06600999832
1463693462302561806,0.925000011921,5.26913738251,-0.326519668102,5.05736732483,0.0,0.0,-2.26733350754
1463693462319149651,0.941666662693,5.34353733063,-0.359109073877,3.87065052986,-3.91073179245,0.0,-2.79867649078
1463693462336194832,0.958333313465,5.41172075272,-0.410138398409,4.31136035919,-2.21278691292,0.0,3.91073179245
1463693462352801205,0.975000023842,5.48451137543,-0.442271262407,4.42349481583,-1.64315617085,0.0,-1.69794499874
1463693462369999868,0.991666674614,5.56255292892,-0.455964237452,4.94152641296,0.0,0.0,-0.569630622864
1463693462386748083,1.00833332539,5.63996696472,-0.467179059982,4.34812021255,-1.34577739239,0.0,-1.64315617085
1463693462403760847,1.02499997616,5.71525716782,-0.48140335083,4.68670845032,-0.361140102148,0.0,1.34577739239
1463693462440148841,1.04166662693,5.79426002502,-0.484180122614,4.79363393784,0.0279281046242,20.0,-0.984637200832
1463693462444193368,1.0583332777,5.87358903885,-0.483947396278,4.72587680817,0.0,20.0,-0.389068216085
1463693462452378210,1.07500004768,5.95194482803,-0.483947396278,4.67681884766,0.0,20.0,0.0279281046242
1463693462470132555,1.09166669846,6.03031921387,-0.482303619385,4.72811698914,0.19725304842,20.0,0.0
1463693462485899273,1.10833334923,6.10687303543,-0.483000904322,4.45831155777,-0.2809278965,20.0,-0.19725304842
1463693462502634575,1.125,6.18208551407,-0.485341966152,4.56718873978,0.0,20.0,0.47818094492
1463693462520584511,1.14166665077,6.25271654129,-0.495973944664,3.90854310989,-1.27583634853,20.0,-0.2809278965
1463693462536446738,1.15833330154,6.31702661514,-0.518639981747,3.80866122246,-1.44408679008,20.0,1.27583634853
1463693462553042106,1.17499995232,6.38640117645,-0.530674040318,4.51629257202,0.0,20.0,0.16825042665
1463693462568959930,1.1916667223,6.44774389267,-0.558786809444,2.84481477737,-3.37353587151,20.0,-1.44408679008
1463693462586077971,1.20833337307,6.49790525436,-0.609455049038,3.17454648018,-2.70665216446,20.0,3.37353587151
1463693462602728537,1.22500002384,6.54973220825,-0.656910836697,3.04471158981,-2.98803877831,20.0,-0.666883647442
1463693462651308048,1.24166667461,6.5934305191,-0.721674203873,2.19908976555,-4.78356981277,0.0,0.281386464834
1463693462657920092,1.25833332539,6.64902114868,-0.761537313461,4.47177505493,0.0,0.0,1.79553091526
1463693462662653577,1.27499997616,6.70568037033,-0.800778210163,2.3273127079,-4.70890855789,0.0,-4.78356981277
1463693462670080872,1.29166662693,6.76234912872,-0.840019106865,4.4729809761,0.0,0.0,4.70890855789
1463693462685499283,1.3083332777,6.83707904816,-0.840019106865,4.49459886551,0.0,0.0,-4.70890855789
1463693462702886912,1.32500004768,6.89646482468,-0.878092825413,2.63170361519,-4.56884717941,0.0,0.0
1463693462719679393,1.34166669846,6.94580125809,-0.941361904144,3.28865432739,-3.02343797684,0.0,4.56884717941
1463693462737548350,1.35833334923,7.0022444725,-0.988331913948,3.48451638222,-2.61296391487,0.0,-1.54540920258
1463693462752470847,1.375,7.06165409088,-1.02916049957,3.64464616776,-2.28646683693,0.0,-0.410474061966
1463693462770020961,1.39166665077,7.12352657318,-1.06504821777,3.78003501892,-2.02005577087,0.0,-0.326497137547
1463693462786439782,1.40833330154,7.19231271744,-1.08188199997,4.47428798676,0.0,0.0,-0.266411215067
1463693462803204131,1.42499995232,7.26144552231,-1.10191047192,3.82166004181,-2.40341544151,0.0,-2.02005577087
1463693462840437250,1.4416667223,7.32900476456,-1.12904918194,4.28544712067,-0.85323381424,0.0,2.40341544151
1463693462846785976,1.45833337307,7.40254449844,-1.13615942001,4.53931808472,0.0,0.0,-1.55018174648
1463693462853674265,1.47500002384,7.47679328918,-1.14549791813,4.37055110931,-1.12061369419,0.0,-0.85323381424
1463693462869629110,1.49166667461,7.55167913437,-1.15483641624,4.61573505402,0.0,0.0,1.12061369419
1463693462885638430,1.50833332539,7.62841081619,-1.16016077995,4.59209346771,-0.638936281204,0.0,-1.12061369419
1463693462902821383,1.52499997616,7.70603656769,-1.16452312469,4.72297668457,0.115455329418,0.0,0.638936281204
1463693462920055987,1.54166662693,7.78527116776,-1.16245687008,4.78516721725,0.132497355342,0.0,-0.754391610622
1463693462936800984,1.5583332777,7.86552000046,-1.16135275364,4.84471893311,0.0,0.0,-0.0170420277864
1463693462952631199,1.57500004768,7.94675683975,-1.16065585613,4.9036860466,0.0836238861084,0.0,0.132497355342
1463693462969403266,1.59166669846,8.02903366089,-1.15995907784,4.96950435638,0.0,0.0,-0.0836238861084
1463693462986026022,1.60833334923,8.1123380661,-1.15986025333,5.02705287933,0.0118531566113,0.0,0.0836238861084
1463693463002958416,1.625,8.19661808014,-1.15981078148,5.0865073204,-0.00592454243451,0.0,-0.0118531566113
1463693463040058821,1.64166665077,8.28179550171,-1.15964591503,5.13485479355,0.025717979297,-20.0,0.0177776999772
1463693463047474699,1.65833330154,8.36779403687,-1.15917527676,5.18489646912,0.0307505372912,-20.0,-0.0316425226629
1463693463053542151,1.67499995232,8.45467185974,-1.15891909599,5.24051332474,0.0,-20.0,-0.00503255799413
1463693463070302982,1.6916667223,8.54241466522,-1.15905451775,5.28864765167,-0.0162503495812,-20.0,0.0307505372912
1463693463086272838,1.70833337307,8.63083457947,-1.1591899395,5.32174968719,0.0,-20.0,0.0162503495812
1463693463102580590,1.72500002384,8.71963787079,-1.15872216225,5.33460283279,0.0561224073172,-20.0,-0.0162503495812
1463693463119059343,1.74166667461,8.80879878998,-1.15783703327,5.36473798752,0.0500979050994,-20.0,-0.0561224073172
1463693463136093638,1.75833332539,8.89856719971,-1.15741956234,5.40744495392,0.0,-20.0,0.00602450268343
1463693463152864058,1.77499997616,8.98891067505,-1.15762937069,5.43376493454,-0.0251828692853,-20.0,0.0500979050994
1463693463170218755,1.79166662693,9.0794467926,-1.15783929825,5.43057632446,0.0,-20.0,0.0251828692853
1463693463186750328,1.8083332777,9.17047119141,-1.158893466,5.49229955673,-0.126501008868,-20.0,-0.0251828692853
1463693463203161439,1.82500004768,9.26068687439,-1.15839147568,5.33365678787,0.186733826995,-20.0,0.126501008868
1463693463239332062,1.84166669846,9.34914302826,-1.15460300446,5.2810921669,0.267889291048,0.0,-0.313234835863
1463693463242920390,1.85833334923,9.43811225891,-1.15237057209,5.39516305923,0.0,0.0,-0.0811554640532
1463693463252439137,1.875,9.52780532837,-1.15237057209,5.36804771423,0.0,0.0,0.267889291048
1463693463268899807,1.89166665077,9.61636447906,-1.15110552311,5.25900316238,0.151800394058,0.0,0.0
1463693463285596643,1.90833330154,9.70428752899,-1.14984059334,5.29177188873,0.0,0.0,-0.151800394058
1463693463301790515,1.92499995232,9.7922744751,-1.15024065971,5.2666478157,-0.048014216125,0.0,0.151800394058
1463693463319796723,1.9416667223,9.88062572479,-1.15329027176,5.33555603027,-0.317930936813,0.0,0.048014216125
1463693463335909186,1.95833337307,9.9687128067,-1.1578348875,5.23484420776,-0.227426216006,0.0,0.269916713238
1463693463353026366,1.97500002384,10.0546178818,-1.15973007679,5.07374000549,0.0,0.0,-0.0905047282577
1463693463369302836,1.99166667461,10.1411476135,-1.16630840302,5.30984783173,-0.789399623871,0.0,-0.227426216006
1463693463385835955,2.0083334446,10.2280550003,-1.17686247826,5.11900663376,-0.47708594799,0.0,0.789399623871
1463693463402625377,2.02500009537,10.3113737106,-1.18083822727,4.87927627563,0.0,0.0,-0.312313705683
1463693463441913875,2.04166674614,10.3983345032,-1.20207703114,5.55607652664,-2.54866671562,0.0,-0.47708594799
1463693463447348732,2.05833339691,10.4846248627,-1.22331595421,4.79877996445,0.0,0.0,2.54866671562
1463693463452635831,2.07500004768,10.563835144,-1.22331595421,4.70639133453,0.0,0.0,-2.54866671562
1463693463469008311,2.09166669846,10.644536972,-1.23932361603,4.97783041,-1.9209151268,0.0,0.0
1463693463486205200,2.10833334923,10.7261486053,-1.26781892776,4.81553983688,-1.49852144718,0.0,1.9209151268
1463693463502333046,2.125,10.8055801392,-1.29278826714,4.71623182297,-1.49780571461,0.0,-0.422393620014
1463693463519175779,2.14166665077,10.8833665848,-1.3179782629,4.61824035645,-1.52498412132,0.0,-0.000715733040124
1463693463535843550,2.15833330154,10.9590358734,-1.33068645,4.46196556091,0.0,0.0,0.0271783098578
1463693463553152293,2.17499995232,11.0325632095,-1.349203825,4.36136436462,-2.22208619118,0.0,-1.52498412132
1463693463568462402,2.19166660309,11.1051015854,-1.36772119999,4.3432302475,0.0,0.0,2.22208619118
1463693463585898382,2.20833325386,11.1756362915,-1.38197588921,4.12093877792,-1.7105691433,0.0,-2.22208619118
1463693463602039245,2.22499990463,11.2447795868,-1.39854550362,4.17621135712,-0.277775794268,0.0,1.7105691433
1463693463632185586,2.2416665554,11.3139104843,-1.4008603096,4.11955118179,0.0,-19.0876693726,-1.43279337883
1463693463637271452,2.2583334446,11.3822002411,-1.39848136902,4.07522153854,0.285461008549,-19.0876693726,-0.277775794268
1463693463653565902,2.27500009537,11.449889183,-1.39112615585,4.04744577408,0.597167432308,-19.0876693726,-0.285461008549
1463693463670597518,2.29166674614,11.5154447556,-1.38614976406,3.81924676895,0.0,-19.0876693726,-0.311706393957
1463693463686177394,2.30833339691,11.5805492401,-1.37788188457,3.99321365356,0.992148697376,-19.0876693726,0.597167432308
1463693463703726027,2.32500004768,11.6448087692,-1.3668961525,3.7179620266,0.326132208109,-19.0876693726,-0.992148697376
1463693463719973787,2.34166669846,11.7052669525,-1.36417841911,3.53704881668,0.0,-19.0876693726,0.666016459465
1463693463735909183,2.35833334923,11.7659807205,-1.3570690155,3.74859905243,0.853129208088,-19.0876693726,0.326132208109
1463693463753231025,2.375,11.8271923065,-1.34470486641,3.59674453735,0.630567550659,-19.0876693726,-0.853129208088
1463693463770770764,2.39166665077,11.8861675262,-1.33526325226,3.48035407066,0.502431333065,-19.0876693726,0.222561657429
1463693463786466868,2.40833330154,11.941983223,-1.33107626438,3.2174551487,0.0,-19.0876693726,0.128136217594
1463693463803217315,2.42499995232,11.9975595474,-1.32513868809,3.45180392265,0.712517738342,-19.0876693726,0.502431333065
1463693463837786710,2.44166660309,12.0520839691,-1.31920099258,3.09111785889,0.0,0.0,-0.712517738342
1463693463841792700,2.45833325386,12.1041173935,-1.31706392765,3.1529071331,0.256442904472,0.0,0.712517738342
1463693463852184833,2.47499990463,12.1553058624,-1.31492698193,2.98962140083,0.0,0.0,-0.256442904472
1463693463868394518,2.4916665554,12.2044353485,-1.3156594038,2.90598249435,-0.0878969654441,0.0,0.256442904472
1463693463886312583,2.5083334446,12.2490520477,-1.32455265522,2.4479496479,-0.979292094707,0.0,0.0878969654441
1463693463903647282,2.52500009537,12.2934551239,-1.33271348476,2.8804936409,0.0,0.0,0.891395151615
1463693463918936475,2.54166674614,12.3307218552,-1.35441100597,1.59145689011,-2.6037106514,0.0,-0.979292094707
1463693463936605612,2.55833339691,12.3593759537,-1.39300048351,1.8470556736,-2.02701973915,0.0,2.6037106514
1463693463952957234,2.57500004768,12.3883543015,-1.43008172512,1.63039636612,-2.42273116112,0.0,-0.576690793037
1463693463970360081,2.59166669846,12.4131669998,-1.47492468357,1.3470890522,-2.9584300518,0.0,0.395711421967
1463693463986968809,2.60833334923,12.4476327896,-1.49957835674,2.78881287575,0.0,0.0,0.535698950291
1463693464004360294,2.625,12.4768228531,-1.53412544727,0.71392339468,-4.14565086365,0.0,-2.9584300518
1463693464033880982,2.64166665077,12.5057878494,-1.5686725378,2.76190829277,0.0,0.0,4.14565086365
1463693464037947867,2.65833330154,12.5282115936,-1.61585855484,-0.070996850729,-5.66232728958,0.0,-4.14565086365
1463693464052223069,2.67499995232,12.5337686539,-1.69664037228,0.737802565098,-4.03149747849,0.0,5.66232728958
1463693464069226569,2.69166660309,12.5450439453,-1.76579618454,0.615237355232,-4.26719522476,0.0,-1.63083004951
1463693464086925154,2.70833325386,12.5729761124,-1.8013561964,2.73657894135,0.0,0.0,0.235697880387
1463693464102408474,2.72499990463,12.5946054459,-1.84937083721,-0.141043797135,-5.76175642014,0.0,-4.26719522476
1463693464119617806,2.7416665554,12.6011447906,-1.92759013176,0.925828516483,-3.62456059456,0.0,5.76175642014
1463693464136654638,2.7583334446,12.6316041946,-1.9577947855,2.72924089432,0.0,0.0,-2.137196064
1463693464153950615,2.77500009537,12.6647129059,-1.9826720953,1.24379217625,-2.98527383804,0.0,-3.62456059456
1463693464169556016,2.79166674614,12.679728508,-2.04402947426,0.558093488216,-4.37762546539,0.0,2.98527383804
1463693464185734129,2.80833339691,12.7071352005,-2.08050966263,2.73068714142,0.0,0.0,1.39235150814
1463693464202744988,2.82500004768,12.7413167953,-2.10359430313,1.37113451958,-2.77015209198,0.0,-4.37762546539
1463693464243325306,2.84166669846,12.7755470276,-2.12667894363,2.73651432991,0.0,0.0,2.77015209198
1463693464251087903,2.85833334923,12.7873029709,-2.19663691521,-1.32581079006,-8.39496612549,0.0,-2.77015209198
1463693464256783956,2.875,12.7994766235,-2.2665951252,2.78659772873,0.0,0.0,8.39496612549
1463693464269445357,2.89166665077,12.8359050751,-2.28753471375,1.58488202095,-2.5127632618,0.0,-8.39496612549
1463693464285831648,2.90833330154,12.8724708557,-2.30847454071,2.80300593376,0.0,0.0,2.5127632618
1463693464302877847,2.92499995232,12.9056940079,-2.33736371994,1.18378031254,-3.46672081947,0.0,-2.5127632618
1463693464319516494,2.94166660309,12.9306936264,-2.38428974152,1.81621301174,-2.16439175606,0.0,3.46672081947
1463693464335681212,2.95833325386,12.9694986343,-2.40232634544,2.84030795097,0.0,0.0,-1.30232894421
1463693464353350371,2.97499990463,13.0036563873,-2.43179869652,1.25860631466,-3.53668165207,0.0,-2.16439175606
1463693464370194774,2.9916665554,13.0381164551,-2.46127104759,2.87659931183,0.0,0.0,3.53668165207
1463693464386499888,3.0083334446,13.0721292496,-2.4935734272,1.2050306797,-3.87627601624,0.0,-3.53668165207
1463693464403344064,3.02500009537,13.096157074,-2.54975128174,1.6782759428,-2.86508846283,0.0,3.87627601624
1463693464439527840,3.04166674614,13.134598732,-2.57362699509,2.93473958969,0.0,0.0,-1.01118755341
1463693464443401424,3.05833339691,13.167632103,-2.61273550987,1.02920985222,-4.69299554825,0.0,-2.86508846283
