%time,field.sys_time,field.q0,field.q1,field.dq0,field.dq1,field.sac0,field.u0
1463693207506075300,0.0,0.0,0.0,0.0,0.0,0.0,-1.35741186142
1463693207509171238,0.00833333376795,3.14278960228,-3.15072703362,0.143625736237,-0.288545995951,0.0,0.0
1463693207519433626,0.0250000003725,3.14397978783,-3.15313148499,-0.000790155725554,0.0,0.0,0.288545995951
1463693207536579150,0.0416666679084,3.14339470863,-3.15198564529,-0.0694286897779,0.137513533235,0.0,-0.288545995951
1463693207552669685,0.0583333335817,3.14220476151,-3.14962482452,-0.0733536705375,0.145777419209,0.0,-0.137513533235
1463693207570115684,0.0750000029802,3.1405415535,-3.14630484581,-0.126226887107,0.252611517906,0.0,-0.00826388597488
1463693207585939418,0.0916666686535,3.13949155807,-3.14419984818,0.000206643075217,0.0,0.0,-0.106834083796
1463693207603015259,0.108333334327,3.13577866554,-3.13673090935,-0.44575381279,0.896278381348,0.0,0.252611517906
1463693207629686046,0.125,3.13208889961,-3.1292617321,0.00298181525432,0.0,0.0,-0.896278381348
1463693207635178873,0.141666665673,3.13102626801,-3.12701439857,-0.130491495132,0.269686728716,0.0,0.896278381348
1463693207652464874,0.158333331347,3.12873363495,-3.12225818634,-0.144614949822,0.301055818796,0.0,-0.269686728716
1463693207668972198,0.17499999702,3.12552714348,-3.11561131477,-0.240183413029,0.496577322483,0.0,-0.0313690938056
1463693207685698630,0.191666662693,3.12360405922,-3.1114730835,0.00941788218915,0.0,0.0,-0.195521503687
1463693207703877474,0.208333328366,3.12238287926,-3.10868024826,-0.155964285135,0.335158318281,0.0,0.496577322483
1463693207719219103,0.22499999404,3.12119269371,-3.10588717461,0.0131439520046,0.0,0.0,-0.335158318281
1463693207735883381,0.241666659713,3.12175774574,-3.1065557003,0.0546650588512,-0.0802252665162,0.0,0.335158318281
1463693207752170434,0.258333325386,3.12234735489,-3.107224226,0.0160902161151,0.0,0.0,0.0802252665162
1463693207770289082,0.27500000596,3.1244559288,-3.11089777946,0.236954897642,-0.440809547901,0.0,-0.0802252665162
1463693207785784343,0.291666656733,3.12657904625,-3.11457109451,0.017814874649,0.0,0.0,0.440809547901
1463693207804386605,0.308333337307,3.12656354904,-3.11392426491,-0.0196811296046,0.0776204839349,0.0,-0.440809547901
1463693207843813382,0.324999988079,3.12481570244,-3.10975575447,-0.190066561103,0.422614574432,0.0,-0.0776204839349
1463693207847296903,0.341666668653,3.12033224106,-3.10003018379,-0.347954541445,0.744451165199,0.0,-0.344994068146
1463693207854372058,0.358333319426,3.11764836311,-3.09382629395,0.0259036328644,0.0,0.0,-0.321836620569
1463693207870394442,0.375,3.1143386364,-3.08627700806,-0.423072516918,0.905912280083,0.0,0.744451165199
1463693207886301054,0.391666680574,3.11107897758,-3.07872772217,0.0318999104202,0.0,0.0,-0.905912280083
1463693207902289078,0.408333331347,3.10603022575,-3.06747293472,-0.63772970438,1.3505730629,0.0,0.905912280083
1463693207918850332,0.425000011921,3.09211087227,-3.0382475853,-1.0325961113,2.15647339821,0.0,-1.3505730629
1463693207936440398,0.441666662693,3.08390617371,-3.02027702332,0.0480401851237,0.0,0.0,-0.805900394917
1463693207952777890,0.458333343267,3.07636499405,-3.0034160614,-0.952993273735,2.02330565453,0.0,2.15647339821
1463693207970358746,0.47499999404,3.05166339874,-2.95176887512,-2.01118588448,4.17435598373,0.0,-2.02330565453
1463693207986670682,0.491666674614,3.03550457954,-2.91698265076,0.0721152052283,0.0,0.0,-2.15105032921
1463693208004578454,0.508333325386,3.02272057533,-2.8885910511,-1.60619962215,3.40700101852,0.0,4.17435598373
1463693208028633617,0.524999976158,2.98094415665,-2.80112147331,-3.40696573257,7.0893330574,0.0,-3.40700101852
1463693208034718511,0.541666686535,2.95330095291,-2.7420437336,0.0897761881351,0.0,0.0,-3.68233180046
1463693208052249223,0.558333337307,2.92226362228,-2.67529892921,-3.81423830986,8.00938796997,0.0,7.0893330574
1463693208070708979,0.574999988079,2.86600875854,-2.55634069443,-2.93636727333,6.26558494568,0.0,-8.00938796997
1463693208086281953,0.591666638851,2.84220719337,-2.50412750244,0.0801982656121,0.0,0.0,1.74380302429
1463693208102420500,0.608333349228,2.8034825325,-2.41956686974,-4.72717809677,10.1472864151,0.0,6.26558494568
1463693208119259501,0.625,2.7353284359,-2.27248930931,-3.45130968094,7.50200414658,0.0,-10.1472864151
1463693208135511727,0.641666650772,2.70644402504,-2.20997262001,-0.0148135526106,0.0,0.0,2.64528274536
1463693208152563124,0.658333361149,2.67715764046,-2.14502739906,-3.49954795837,7.79342889786,0.0,7.50200414658
1463693208170062180,0.675000011921,2.5991294384,-1.96928441525,-5.86385202408,13.2957344055,0.0,-7.79342889786
1463693208185958005,0.691666662693,2.54782342911,-1.85848665237,-0.292867898941,0.0,0.0,-5.50230550766
1463693208203196979,0.708333313465,2.4972486496,-1.74673175812,-5.7760887146,13.4105825424,0.0,13.2957344055
1463693208229959049,0.725000023842,2.44448113441,-1.63497698307,-0.556006669998,0.0,0.0,-13.4105825424
1463693208237696140,0.741666674614,2.40433001518,-1.55258846283,-4.26214885712,9.8866186142,0.0,13.4105825424
1463693208252760032,0.758333325386,2.31796860695,-1.34317719936,-6.10121011734,15.2427368164,0.0,-9.8866186142
1463693208270129931,0.774999976158,2.25762605667,-1.21615433693,-1.1399089098,0.0,0.0,-5.35611915588
1463693208287087154,0.791666686535,2.19888448715,-1.08710002899,-5.90906476974,15.4865236282,0.0,15.2427368164
1463693208303492630,0.808333337307,2.1143848896,-0.877392113209,-4.23088884354,9.67842197418,0.0,-15.4865236282
1463693208319645546,0.824999988079,2.0641644001,-0.796738564968,-1.79555726051,0.0,0.0,5.80810213089
1463693208337838875,0.841666638851,2.00665140152,-0.673579394817,-5.10602235794,14.7791061401,0.0,9.67842197418
1463693208353304682,0.858333349228,1.93105220795,-0.472771763802,-3.96587634087,9.31780815125,0.0,-14.7791061401
1463693208370495663,0.875,1.8666703701,-0.323318421841,-3.75994205475,8.61659431458,0.0,5.46129798889
1463693208386099601,0.891666650772,1.81414163113,-0.251513451338,-2.54350399971,0.0,0.0,0.70121383667
1463693208402763848,0.908333361149,1.76170480251,-0.153154686093,-3.74892044067,11.8030529022,0.0,8.61659431458
1463693208448043151,0.925000011921,1.70781230927,-0.0547959171236,-2.71817040443,0.0,0.0,-11.8030529022
1463693208457787738,0.941666662693,1.65567064285,0.0790308788419,-3.53883814812,16.0592155457,0.0,11.8030529022
1463693208463555117,0.958333313465,1.60118019581,0.212857663631,-3.00000810623,0.0,0.0,-16.0592155457
1463693208470964120,0.975000023842,1.55196201801,0.212857663631,-2.90617513657,0.0,0.0,16.0592155457
1463693208486269000,0.991666674614,1.50551772118,0.269479393959,-2.66714096069,6.79460716248,0.0,0.0
1463693208502487582,1.00833332539,1.46066224575,0.355814635754,-2.71552062035,3.56562304497,0.0,-6.79460716248
1463693208519532216,1.02499997616,1.41603028774,0.413125425577,-2.64030861855,3.31166863441,0.0,3.22898435593
1463693208535981071,1.04166662693,1.37036705017,0.440722644329,-2.83927750587,0.0,0.0,0.253954321146
1463693208552243307,1.0583332777,1.32789921761,0.477711737156,-2.25686907768,4.43869113922,0.0,3.31166863441
1463693208569267820,1.07500004768,1.28625166416,0.514700829983,-2.74084424973,0.0,0.0,-4.43869113922
1463693208585672742,1.09166669846,1.2453764677,0.541670322418,-2.16417837143,3.23633503914,0.0,4.43869113922
1463693208602596626,1.10833334923,1.20549714565,0.568639755249,-2.62133932114,0.0,0.0,-3.23633503914
1463693208632946196,1.125,1.16560304165,0.58499789238,-2.16595315933,1.96297562122,0.0,3.23633503914
1463693208638701089,1.14166665077,1.12829101086,0.60839599371,-2.31147837639,0.844797194004,0.0,-1.96297562122
1463693208652745855,1.15833330154,1.08889138699,0.615435957909,-2.41647768021,0.0,0.0,1.11817848682
1463693208669215131,1.17499995232,1.05130553246,0.623823881149,-2.09383010864,1.00654602051,0.0,0.844797194004
1463693208685834476,1.1916667223,1.01492667198,0.632211744785,-2.27162837982,0.0,0.0,-1.00654602051
1463693208703169682,1.20833337307,0.97979414463,0.639892578125,-1.94428181648,0.921700835228,0.0,1.00654602051
1463693208718679387,1.22500002384,0.948704302311,0.657683908939,-1.78649508953,1.21326220036,0.0,-0.921700835228
1463693208735620021,1.24166667461,0.916541457176,0.667794466019,-2.0730509758,0.0,0.0,-0.29156139493
1463693208752517713,1.25833332539,0.883636415005,0.671159923077,-1.87555038929,0.403858840466,0.0,1.21326220036
1463693208768863665,1.27499997616,0.851773202419,0.674205124378,-1.9480355978,-0.0384394600987,0.0,-0.403858840466
1463693208785593269,1.29166662693,0.819983541965,0.673884749413,-1.86672222614,0.0,0.0,0.442298293114
1463693208802492136,1.3083332777,0.78838378191,0.670870959759,-1.92525053024,-0.361655116081,0.0,-0.0384394600987
1463693208831173770,1.32500004768,0.757911622524,0.667857170105,-1.73140990734,0.0,0.0,0.361655116081
1463693208836334942,1.34166669846,0.728052914143,0.663708925247,-1.85163712502,-0.497794270515,0.0,-0.361655116081
1463693208852145690,1.35833334923,0.697813153267,0.655712604523,-1.7771333456,-0.461758375168,0.0,0.497794270515
1463693208870692631,1.375,0.670170724392,0.651864647865,-1.53995656967,0.0,0.0,-0.0360358990729
1463693208885504482,1.39166665077,0.643005549908,0.646875977516,-1.71986651421,-0.598640859127,0.0,-0.461758375168
1463693208902093380,1.40833330154,0.614857435226,0.637042105198,-1.65790557861,-0.581421196461,0.0,0.598640859127
1463693208919849800,1.42499995232,0.589657247066,0.632196962833,-1.3661198616,0.0,0.0,-0.017219658941
1463693208935725676,1.4416667223,0.562769174576,0.621319174767,-1.86044371128,-1.30533075333,0.0,-0.581421196461
1463693208954472744,1.45833337307,0.533373832703,0.602371811867,-1.6670011282,-0.968356490135,0.0,1.30533075333
1463693208969872474,1.47500002384,0.505266726017,0.584571540356,-1.7058494091,-1.16767692566,0.0,-0.336974292994
1463693208986554753,1.49166667461,0.481489211321,0.574840903282,-1.14745163918,0.0,0.0,0.199320390821
1463693209003434159,1.50833332539,0.454910695553,0.557255685329,-2.04197144508,-2.11022019386,0.0,-1.16767692566
1463693209034353648,1.52499997616,0.423214524984,0.526469945908,-1.76157081127,-1.58406805992,0.0,2.11022019386
1463693209037206978,1.54166662693,0.400220006704,0.513269424438,-0.997769832611,0.0,0.0,-0.526152193546
1463693209052765921,1.5583332777,0.373677581549,0.491100162268,-2.18732047081,-2.66030859947,0.0,-1.58406805992
1463693209069614027,1.57500004768,0.340705394745,0.453551381826,-1.76934087276,-1.84554600716,0.0,2.66030859947
1463693209086242519,1.59166669846,0.318752646446,0.438171833754,-0.864991128445,0.0,0.0,-0.814762711525
1463693209102540421,1.60833334923,0.291741400957,0.411110281944,-2.37635779381,-3.24738478661,0.0,-1.84554600716
1463693209119086356,1.625,0.265386134386,0.384048759937,-0.786273956299,0.0,0.0,3.24738478661
1463693209136403432,1.64166665077,0.239933803678,0.357991695404,-2.26800560951,-3.12684798241,0.0,-3.24738478661
1463693209152317737,1.65833330154,0.215026199818,0.331934601068,-0.720906972885,0.0,0.0,3.12684798241
1463693209169335382,1.67499995232,0.191995367408,0.308989852667,-2.04279232025,-2.75337266922,0.0,-3.12684798241
1463693209185922729,1.6916667223,0.169393345714,0.286045074463,-0.669450223446,0.0,0.0,2.75337266922
1463693209202656165,1.70833337307,0.148144185543,0.265239745378,-1.88044989109,-2.49663925171,0.0,-2.75337266922
1463693209236724030,1.72500002384,0.120361112058,0.230520173907,-1.45351910591,-1.66970908642,0.0,2.49663925171
1463693209245035910,1.74166667461,0.10017003864,0.210588350892,-0.969408929348,-0.722109973431,0.0,-0.826930224895
1463693209252135558,1.75833332539,0.0870938822627,0.204570770264,-0.599730193615,0.0,0.0,-0.947599112988
1463693209270452937,1.77499997616,0.075469404459,0.201135471463,-0.79520714283,-0.412234663963,0.0,-0.722109973431
1463693209286144531,1.79166662693,0.0639972239733,0.197700187564,-0.58145481348,0.0,0.0,0.412234663963
1463693209302887512,1.8083332777,0.0557709559798,0.200524687767,-0.40569716692,0.338940262794,0.0,-0.412234663963
1463693209319361656,1.82500004768,0.0502031557262,0.208474114537,-0.262438625097,0.61499029398,0.0,-0.338940262794
1463693209335552010,1.84166669846,0.0433210767806,0.213599026203,-0.563411176205,0.0,0.0,-0.276050060987
1463693209352642375,1.85833334923,0.0396053679287,0.224908098578,0.117526397109,1.35708880424,0.0,0.61499029398
1463693209369962977,1.875,0.0408213250339,0.245986551046,0.028388235718,1.17232441902,0.0,-1.35708880424
1463693209385987194,1.89166665077,0.0364593714476,0.255755901337,-0.551822662354,0.0,0.0,0.184764400125
1463693209402017922,1.90833330154,0.0343540087342,0.269918978214,0.299179106951,1.69956624508,0.0,1.17232441902
1463693209436457801,1.92499995232,0.0378756821156,0.295273184776,0.12342172116,1.3429390192,0.0,-1.69956624508
1463693209444381435,1.9416667223,0.0411538891494,0.32006457448,0.269963294268,1.63202810287,0.0,0.356627255678
1463693209452113188,1.95833337307,0.0389055535197,0.333664804697,-0.539763748646,0.0,0.0,-0.289089173079
1463693209468787570,1.97500002384,0.0412356220186,0.356332272291,0.819372057915,2.72009658813,0.0,1.63202810287
1463693209485700953,1.99166667461,0.0436183288693,0.378999739885,-0.53344720602,0.0,0.0,-2.72009658813
1463693209502155169,2.0083334446,0.0412871092558,0.392088681459,0.253700882196,1.57067286968,0.0,2.72009658813
1463693209519702432,2.02500009537,0.0441234484315,0.415427744389,0.0866598188877,1.23001515865,0.0,-1.57067286968
1463693209535652022,2.04166674614,0.0432287044823,0.43117210269,-0.194028884172,0.659307718277,0.0,0.340657770634
1463693209552464274,2.05833339691,0.0372955538332,0.436666339636,-0.517949163914,0.0,0.0,0.570707440376
1463693209568883667,2.07500004768,0.0286246240139,0.436508178711,-0.522562563419,-0.0189795885235,0.0,0.659307718277
1463693209585618332,2.09166669846,0.0200285501778,0.436350017786,-0.508966326714,0.0,0.0,0.0189795885235
1463693209603296616,2.10833334923,0.0089970016852,0.431175589561,-0.814819455147,-0.620932221413,0.0,-0.0189795885235
1463693209635751307,2.125,-0.00376238115132,0.422415226698,-0.716306447983,-0.430309534073,0.0,0.620932221413
1463693209640621314,2.14166665077,-0.0150019284338,0.416610091925,-0.632439255714,-0.266307711601,0.0,-0.190622672439
1463693209651760922,2.15833330154,-0.0244292896241,0.414390861988,-0.498843997717,0.0,0.0,-0.164001822472
1463693209669738725,2.17499995232,-0.0326811298728,0.414520144463,-0.491376817226,0.0155138522387,0.0,-0.266307711601
1463693209685747903,2.19166660309,-0.0407027043402,0.415132284164,-0.471211999655,0.0579428598285,0.0,-0.0155138522387
1463693209702283939,2.20833325386,-0.0472655855119,0.418719828129,-0.316333889961,0.372564405203,0.0,-0.0424290075898
1463693209718845446,2.22499990463,-0.0519283115864,0.426200509071,-0.243193224072,0.525115013123,0.0,-0.314621567726
1463693209736178918,2.2416665554,-0.0581861883402,0.430576473475,-0.507752180099,0.0,0.0,-0.15255060792
1463693209753153735,2.2583334446,-0.0627420023084,0.438484936953,-0.0389451086521,0.949017465115,0.0,0.525115013123
1463693209768619376,2.27500009537,-0.0673638433218,0.446393430233,-0.51567620039,0.0,0.0,-0.949017465115
1463693209785508603,2.29166674614,-0.0709564983845,0.45652332902,0.0845573320985,1.21559000015,0.0,0.949017465115
1463693209802146196,2.30833339691,-0.0746309757233,0.466653257608,-0.525494635105,0.0,0.0,-1.21559000015
1463693209841597929,2.32500004768,-0.0765369907022,0.480524450541,0.296773254871,1.66454279423,0.0,1.21559000015
1463693209847100236,2.34166669846,-0.0710743069649,0.509428262711,0.358748614788,1.80391848087,0.0,-1.66454279423
1463693209853836812,2.35833334923,-0.0726241022348,0.524460911751,-0.54472386837,0.0,0.0,-0.139375656843
1463693209870171870,2.375,-0.0723663792014,0.543328464031,0.575650572777,2.26409959793,0.0,1.80391848087
1463693209886892600,2.39166665077,-0.0722143873572,0.562195956707,-0.557411074638,0.0,0.0,-2.26409959793
1463693209903872214,2.40833330154,-0.0752097070217,0.574937343597,0.197972372174,1.52896940708,0.0,2.26409959793
1463693209920248428,2.42499995232,-0.0714439600706,0.601472854614,0.253917247057,1.65529334545,0.0,-1.52896940708
1463693209935866189,2.44166660309,-0.0741220712662,0.615266978741,-0.575290799141,0.0,0.0,-0.12632393837
1463693209952849446,2.45833325386,-0.0718365982175,0.63924664259,0.849547863007,2.87756204605,0.0,1.65529334545
1463693209969309420,2.47499990463,-0.0571023747325,0.688510358334,0.918558776379,3.03408312798,0.0,-2.87756204605
1463693209985945585,2.4916665554,-0.0544371753931,0.713794410229,-0.598734974861,0.0,0.0,-0.15652102232
1463693210002919759,2.5083334446,-0.0514510422945,0.739908337593,0.957071244717,3.13367247581,0.0,3.03408312798
1463693210032316531,2.52500009537,-0.0485577769578,0.766022264957,-0.609879255295,0.0,0.0,-3.13367247581
1463693210037746437,2.54166674614,-0.0452756211162,0.793087482452,1.00373768806,3.24782419205,0.0,3.13367247581
1463693210051597257,2.55833339691,-0.0420787297189,0.820152699947,-0.620110750198,0.0,0.0,-3.24782419205
1463693210070961619,2.57500004768,-0.0371968634427,0.85075712204,1.20593488216,3.67253279686,0.0,3.24782419205
1463693210087195190,2.59166669846,-0.0225991923362,0.901039481163,0.545785546303,2.3613474369,0.0,-3.67253279686
1463693210102177463,2.60833334923,-0.0233338475227,0.920717358589,-0.633943974972,0.0,0.0,1.31118535995
1463693210119008220,2.625,-0.0197570566088,0.949116110802,1.06315875053,3.40784907341,0.0,2.3613474369
1463693210138972212,2.64166665077,-0.00837649870664,0.993276536465,0.302508205175,1.89140641689,0.0,-3.40784907341
1463693210152461940,2.65833330154,-0.0111998450011,1.00903832912,-0.641309797764,0.0,0.0,1.51644277573
1463693210168952054,2.67499995232,-0.0112944887951,1.03028762341,0.629952549934,2.54992699623,0.0,1.89140641689
1463693210185895669,2.69166660309,-0.00464353617281,1.06511259079,0.168161779642,1.62906646729,0.0,-2.54992699623
1463693210202764173,2.70833325386,-0.00861073378474,1.07868814468,-0.644225478172,0.0,0.0,0.920860588551
1463693210236763526,2.72499990463,-0.00749697070569,1.10245668888,0.777876973152,2.85222268105,0.0,1.62906646729
1463693210240719041,2.7416665554,-0.00639915745705,1.12622523308,-0.646139383316,0.0,0.0,-2.85222268105
1463693210251645333,2.7583334446,-0.0171537939459,1.12622523308,-0.644416987896,0.0,0.0,2.85222268105
1463693210269131144,2.77500009537,-0.0244968440384,1.1330332756,-0.236748963594,0.8169734478,0.0,0.0
1463693210285348983,2.79166674614,-0.0318423323333,1.13984143734,-0.644709646702,0.0,0.0,-0.8169734478
1463693210302411958,2.80833339691,-0.037639208138,1.1497887373,-0.0509154908359,1.19366931915,0.0,0.8169734478
1463693210319832854,2.82500004768,-0.0374891124666,1.17173802853,0.0689268037677,1.44024705887,0.0,-1.19366931915
1463693210335527437,2.84166669846,-0.0423418469727,1.1837400198,-0.651254951954,0.0,0.0,-0.246577754617
1463693210352770850,2.85833334923,-0.0448561646044,1.20052266121,0.349537104368,2.01391172409,0.0,1.44024705887
1463693210370177184,2.875,-0.0474230907857,1.21730530262,-0.657568156719,0.0,0.0,-2.01391172409
1463693210386339988,2.89166665077,-0.0476686544716,1.23887133598,0.628100454807,2.58792734146,0.0,2.01391172409
1463693210402970747,2.90833330154,-0.0479832328856,1.26043736935,-0.665850043297,0.0,0.0,-2.58792734146
1463693210430249926,2.92499995232,-0.045399017632,1.28797066212,0.975956141949,3.30400037766,0.0,2.58792734146
1463693210434948246,2.94166660309,-0.042897246778,1.3155040741,-0.675743937492,0.0,0.0,-3.30400037766
1463693210452064525,2.95833325386,-0.0398517325521,1.3442813158,1.04120564461,3.45327425003,0.0,3.30400037766
1463693210468809713,2.97499990463,-0.0264802705497,1.39395332336,0.563370049,2.5073621273,0.0,-3.45327425003
1463693210485567847,2.9916665554,-0.0186564382166,1.43266761303,0.375489711761,2.13834953308,0.0,0.945912182331
1463693210502548193,3.0083334446,-0.0135872047395,1.46596682072,0.232818320394,1.85755586624,0.0,0.369012445211
1463693210518741957,3.02500009537,-0.0174326635897,1.48144638538,-0.694273471832,0.0,0.0,0.280793726444
