%time,field.sys_time,field.q0,field.q1,field.dq0,field.dq1,field.sac0,field.u0
1463693037800847559,0.0,0.0,0.0,0.0,0.0,0.0,-0.172211140394
1463693037806154764,0.00833333376795,3.14159274101,-1.56979286671,0.0,0.0,0.0,0.0
1463693037821549988,0.0250000003725,3.1415784359,-1.5697644949,-0.00169417937286,0.00340363127179,0.0,0.0
1463693037838586051,0.0416666679084,3.14194560051,-1.57050180435,0.0457466319203,-0.0918869152665,0.0,-0.00340363127179
1463693037855086852,0.0583333335817,3.14232492447,-1.57126760483,-0.000240170149482,0.0,0.0,0.0952905416489
1463693037871844796,0.0750000029802,3.14283227921,-1.57229590416,0.0611223988235,-0.123395696282,0.0,-0.0918869152665
1463693037888848552,0.0916666686535,3.14333581924,-1.57332420349,-0.000694388581906,0.0,0.0,0.123395696282
1463693037905197908,0.108333334327,3.14333176613,-1.57334172726,0.000214293977479,-0.0021038276609,0.0,-0.123395696282
1463693037931709035,0.125,3.14351463318,-1.57373940945,0.0217308923602,-0.045617479831,0.0,0.0021038276609
1463693037937927126,0.141666665673,3.14368534088,-1.57411956787,-0.00123674736824,0.0,0.0,0.0435136519372
1463693037956747151,0.158333331347,3.14415335655,-1.57510375977,0.0573875904083,-0.118107572198,0.0,-0.045617479831
1463693037972701390,0.17499999702,3.14501237869,-1.57688462734,0.0456992760301,-0.0956005752087,0.0,0.118107572198
1463693037988004084,0.191666662693,3.14540505409,-1.57774484158,0.00140832026955,-0.00762099353597,0.0,-0.0225069988519
1463693038007202578,0.208333328366,3.14539408684,-1.57780838013,-0.00270210625604,0.0,0.0,-0.0879795774817
1463693038022169670,0.22499999404,3.14515137672,-1.57741594315,-0.026434937492,0.0470845848322,0.0,-0.00762099353597
1463693038038189963,0.241666659713,3.14490485191,-1.57702362537,-0.00316045177169,0.0,0.0,-0.0470845848322
1463693038054746535,0.258333325386,3.14488959312,-1.57710313797,0.00133758888114,-0.00954756699502,0.0,0.0470845848322
1463693038071817733,0.27500000596,3.14568638802,-1.57882285118,0.0942777618766,-0.196818709373,0.0,0.00954756699502
1463693038088624745,0.291666656733,3.14643478394,-1.5804630518,-0.00447704503313,0.0,0.0,0.187271133065
1463693038105166800,0.308333337307,3.14760994911,-1.58298027515,0.145502865314,-0.302063345909,0.0,-0.196818709373
1463693038128247682,0.324999988079,3.15090918541,-1.58979094028,0.250408172607,-0.515218913555,0.0,0.302063345909
1463693038137969196,0.341666668653,3.15292930603,-1.59408438206,-0.00799595471472,0.0,0.0,0.213155567646
1463693038155543416,0.358333319426,3.15781807899,-1.60418903828,0.594644248486,-1.21255099773,0.0,-0.515218913555
1463693038172173799,0.375,3.16688156128,-1.62276601791,0.492985248566,-1.01669704914,0.0,1.21255099773
1463693038189161677,0.391666680574,3.17084550858,-1.63123857975,-0.0173049718142,0.0,0.0,-0.195853874087
1463693038205584999,0.408333331347,3.17482590675,-1.6398563385,0.49492931366,-1.03412973881,0.0,-1.01669704914
1463693038221660139,0.425000011921,3.17850637436,-1.64799320698,-0.0532526038587,0.0576975904405,0.0,1.03412973881
1463693038238463011,0.441666662693,3.17657780647,-1.64498484135,-0.178169637918,0.303302913904,0.0,-1.09182727337
1463693038256441910,0.458333343267,3.17484927177,-1.64245736599,-0.0292699895799,0.0,0.0,-0.245605319738
1463693038271731027,0.47499999404,3.16602611542,-1.62574601173,-1.02951025963,2.00536322594,0.0,0.303302913904
1463693038288693676,0.491666674614,3.14644360542,-1.58740353584,-1.32039129734,2.59572577477,0.0,-2.00536322594
1463693038305727529,0.508333325386,3.12124109268,-1.53762221336,-1.70389938354,3.37803936005,0.0,-0.590362608433
1463693038324452526,0.524999976158,3.10693025589,-1.50947189331,-0.0134132364765,0.0,0.0,-0.782313644886
1463693038338789195,0.541666686535,3.0800652504,-1.45588755608,-3.21036934853,6.43011474609,0.0,3.37803936005
1463693038354624193,0.558333337307,3.05330753326,-1.40230333805,-0.000564728921745,0.0,0.0,-6.43011474609
1463693038372285368,0.574999988079,3.0199611187,-1.33498370647,-4.00100851059,8.07835865021,0.0,6.43011474609
1463693038388588435,0.591666638851,2.9866464138,-1.26766395569,0.00324327941053,0.0,0.0,-8.07835865021
1463693038405383868,0.608333349228,2.948533535,-1.18990087509,-4.57678413391,9.33157348633,0.0,8.07835865021
1463693038422051879,0.625,2.88448667526,-1.05893576145,-3.10885763168,6.3842458725,0.0,-9.33157348633
1463693038438785788,0.641666650772,2.83388519287,-0.954445719719,-2.96332120895,6.15455198288,0.0,2.94732761383
1463693038455197802,0.658333361149,2.8089594841,-0.903157830238,-0.0277569945902,0.0,0.0,0.229694202542
1463693038474040143,0.675000011921,2.77369236946,-0.828748106956,-4.20428323746,8.9291677475,0.0,6.15455198288
1463693038488669247,0.691666662693,2.71503639221,-0.703927874565,-2.83445000648,6.04925394058,0.0,-8.9291677475
1463693038505091821,0.708333313465,2.66781210899,-0.602266967297,-2.83246779442,6.15005874634,0.0,2.87991380692
1463693038530053746,0.725000023842,2.64345216751,-0.551016449928,-0.0907129198313,0.0,0.0,-0.100804723799
1463693038539478935,0.741666674614,2.60851097107,-0.473832517862,-4.10222959518,9.26207447052,0.0,6.15005874634
1463693038555421470,0.758333325386,2.55203962326,-0.346569538116,-2.67432379723,6.00948429108,0.0,-9.26207447052
1463693038571645700,0.774999976158,2.52836108208,-0.296490490437,-0.167099073529,0.0,0.0,3.25259041786
1463693038589019696,0.791666686535,2.50671577454,-0.249148413539,-2.43035936356,5.68104982376,0.0,6.00948429108
1463693038606265302,0.808333337307,2.46759486198,-0.156712219119,-2.26413011551,5.41129398346,0.0,-5.68104982376
1463693038621431127,0.824999988079,2.44764566422,-0.111618094146,-0.129785627127,0.0,0.0,0.269755870104
1463693038638555852,0.841666638851,2.42068052292,-0.0456207506359,-3.10602259636,7.91968107224,0.0,5.41129398346
1463693038655539556,0.858333349228,2.36894583702,0.0878402143717,-3.10213589668,8.09563541412,0.0,-7.91968107224
1463693038671525385,0.875,2.34127902985,0.155303835869,-0.217904433608,0.0,0.0,-0.175954073668
1463693038688236050,0.891666650772,2.31503820419,0.222046032548,-2.93096971512,8.00906276703,0.0,8.09563541412
1463693038704947061,0.908333361149,2.28871035576,0.288788229227,-0.228385835886,0.0,0.0,-8.00906276703
1463693038735522972,0.925000011921,2.26577234268,0.34891551733,-2.52418518066,7.21527528763,0.0,8.00906276703
1463693038738622490,0.941666662693,2.24300384521,0.409042805433,-0.208014920354,0.0,0.0,-7.21527528763
1463693038754551649,0.958333313465,2.22437858582,0.459781914949,-2.02702903748,6.0886926651,0.0,7.21527528763
1463693038771521497,0.975000023842,2.19722175598,0.540954470634,-1.23177719116,3.65201282501,0.0,-6.0886926651
1463693038788437092,0.991666674614,2.17781615257,0.599987387657,-1.09691274166,3.43193531036,0.0,2.43668007851
1463693038806203948,1.00833332539,2.16068387032,0.655220270157,-0.958965420723,3.19601225853,0.0,0.220077678561
1463693038822008535,1.02499997616,2.15258836746,0.681853711605,-0.0124892266467,0.0,0.0,0.235923036933
1463693038837797397,1.04166662693,2.14615535736,0.706684648991,-0.759475827217,2.97971177101,0.0,3.19601225853
1463693038855890629,1.0583332777,2.13140320778,0.766380906105,-1.01077747345,4.18384361267,0.0,-2.97971177101
1463693038872190436,1.07500004768,2.12427425385,0.801246285439,0.155317977071,0.0,0.0,-1.20413172245
1463693038888501911,1.09166669846,2.12158513069,0.823550224304,-0.478008508682,2.67647051811,0.0,4.18384361267
1463693038905449754,1.10833334923,2.11341142654,0.871260225773,-0.502861499786,3.04873180389,0.0,-2.67647051811
1463693038931054022,1.125,2.10591340065,0.920962393284,-0.396887362003,2.91552639008,0.0,-0.37226125598
1463693038939197795,1.14166665077,2.10603046417,0.945258438587,0.410946905613,0.0,0.0,0.133205398917
1463693038954999557,1.15833330154,2.10341644287,0.984537243843,-0.72465056181,4.71345567703,0.0,2.91552639008
1463693038972137921,1.17499995232,2.0960214138,1.04682433605,-0.162739187479,2.76099848747,0.0,-4.71345567703
1463693038991084488,1.1916667223,2.09364795685,1.09386110306,-0.12206979841,2.88341760635,0.0,1.95245730877
1463693039005440817,1.20833337307,2.09816861153,1.11788964272,0.664547502995,0.0,0.0,-0.122418910265
1463693039022170768,1.22500002384,2.10050272942,1.15467119217,-0.384456634521,4.41378688812,0.0,2.88341760635
1463693039038238935,1.24166667461,2.10389661789,1.19145274162,0.791718661785,0.0,0.0,-4.41378688812
1463693039056208465,1.25833332539,2.1083881855,1.22764241695,-0.252741277218,4.34276342392,0.0,4.41378688812
1463693039071584125,1.27499997616,2.10794425011,1.28751754761,0.199480757117,2.84225487709,0.0,-4.34276342392
1463693039090008944,1.29166662693,2.11789464951,1.31120300293,0.994567275047,0.0,0.0,1.50050842762
1463693039104350094,1.3083332777,2.12677097321,1.34260129929,0.0705766305327,3.76778769493,0.0,2.84225487709
1463693039126916005,1.32500004768,2.13677811623,1.37399947643,1.13029301167,0.0,0.0,-3.76778769493
1463693039138428519,1.34166669846,2.14930963516,1.39923584461,0.37348601222,3.02835416794,0.0,3.76778769493
1463693039155389225,1.35833334923,2.15817856789,1.44206500053,0.690799415112,2.11114501953,0.0,-3.02835416794
1463693039171608020,1.375,2.1708612442,1.47498381138,0.831117153168,1.83912444115,0.0,0.917209267616
1463693039188260286,1.39166665077,2.1866338253,1.5007327795,1.06159806252,1.25074338913,0.0,0.272020488977
1463693039205447001,1.40833330154,2.20787549019,1.51115560532,1.48738062382,0.0,0.0,0.588381111622
1463693039222492214,1.42499995232,2.23024916649,1.52080285549,1.19747328758,1.15767383575,0.0,1.25074338913
1463693039238494619,1.4416667223,2.25278687477,1.5333340168,1.50706088543,0.346055060625,0.0,-1.15767383575
1463693039255065892,1.45833337307,2.27929258347,1.53621780872,1.67361068726,0.0,0.0,0.811618745327
1463693039274398905,1.47500002384,2.30758976936,1.53636133671,1.72205066681,0.0172272063792,0.0,0.346055060625
1463693039288368742,1.49166667461,2.3367433548,1.53659975529,1.77637684345,0.0113812191412,0.0,-0.0172272063792
1463693039305014794,1.50833332539,2.36680316925,1.53669452667,1.83080852032,0.0,0.0,0.00584598630667
1463693039335379818,1.52499997616,2.3978703022,1.53627920151,1.89724934101,-0.0498520508409,-20.0,0.0113812191412
1463693039339678874,1.54166662693,2.42972230911,1.53586375713,1.92499256134,0.0,-20.0,0.0498520508409
1463693039354791929,1.5583332777,2.46121168137,1.53838169575,1.85371518135,0.302154928446,-20.0,-0.0498520508409
1463693039372650477,1.57500004768,2.4929702282,1.54211819172,1.95732438564,0.146232277155,-20.0,-0.302154928446
1463693039388771546,1.59166669846,2.52641487122,1.54333686829,2.05602669716,0.0,-20.0,0.15592263639
1463693039405120817,1.60833334923,2.56054353714,1.54442834854,2.03942036629,0.130987107754,-20.0,0.146232277155
1463693039422423370,1.625,2.59528517723,1.54551994801,2.12957572937,0.0,-20.0,-0.130987107754
1463693039439442183,1.64166665077,2.6313354969,1.54484784603,2.19645428658,-0.0806572884321,-20.0,0.130987107754
1463693039454942869,1.65833330154,2.66816878319,1.54354608059,2.22354078293,-0.075555562973,-20.0,0.0806572884321
1463693039476175288,1.67499995232,2.70516729355,1.54291641712,2.21627879143,0.0,-20.0,-0.00510172499344
1463693039489162975,1.6916667223,2.74390697479,1.53939306736,2.43249750137,-0.422806590796,-20.0,-0.075555562973
1463693039504941795,1.70833337307,2.78298377991,1.53586959839,2.25670576096,0.0,-20.0,0.422806590796
1463693039533499929,1.72500002384,2.82262611389,1.53185904026,2.50038003922,-0.481277674437,0.0,-0.422806590796
1463693039540219559,1.74166667461,2.86250305176,1.52784836292,2.28486442566,0.0,0.0,0.481277674437
1463693039555883278,1.75833332539,2.90479683876,1.5192912817,2.79038190842,-1.02684593201,0.0,-0.481277674437
1463693039572791508,1.77499997616,2.94718670845,1.51073420048,2.29640245438,0.0,0.0,1.02684593201
1463693039588684693,1.79166662693,2.99015712738,1.50123298168,2.86004948616,-1.14015066624,0.0,-1.02684593201
1463693039604979960,1.8083332777,3.04167604446,1.47440803051,3.32221531868,-2.07884001732,0.0,1.14015066624
1463693039621363337,1.82500004768,3.08837652206,1.45708441734,2.28185272217,0.0,0.0,0.938689470291
1463693039639087598,1.84166669846,3.13853287697,1.43261027336,3.73688292503,-2.93689632416,0.0,-2.07884001732
1463693039654999067,1.85833334923,3.20277833939,1.37942028046,3.97258734703,-3.44589781761,0.0,2.93689632416
1463693039671340677,1.875,3.25454926491,1.35070443153,2.23991084099,0.0,0.0,0.509001612663
1463693039688840771,1.89166665077,3.31596851349,1.30159795284,5.13039731979,-5.89277839661,0.0,-3.44589781761
1463693039705396417,1.90833330154,3.37726044655,1.25249147415,2.22463965416,0.0,0.0,5.89277839661
1463693039740914215,1.92499995232,3.45925951004,1.15892016888,7.61526346207,-11.2285604477,0.0,-5.89277839661
1463693039745485991,1.9416667223,3.54234218597,1.0653488636,2.35464596748,0.0,0.0,11.2285604477
1463693039755997959,1.95833337307,3.58122801781,1.0653488636,2.31167149544,0.0,0.0,-11.2285604477
1463693039771782354,1.97500002384,3.64740395546,1.00261223316,5.62942266464,-7.52839231491,0.0,0.0
1463693039789109851,1.99166667461,3.7319817543,0.897622644901,4.5199303627,-5.07035541534,0.0,7.52839231491
1463693039805993740,2.0083334446,3.80884385109,0.807947218418,4.70351934433,-5.69070005417,0.0,-2.45803689957
1463693039823053688,2.02500009537,3.86866211891,0.760524690151,2.47466492653,0.0,0.0,0.620344877243
1463693039838930040,2.04166674614,3.93637108803,0.686605572701,5.65039730072,-8.87029838562,0.0,-5.69070005417
1463693039855544780,2.05833339691,4.00530529022,0.612686395645,2.62170410156,0.0,0.0,8.87029838562
1463693039871606932,2.07500004768,4.07484817505,0.528780281544,5.72344589233,-10.0687360764,0.0,-8.87029838562
1463693039890094068,2.09166669846,4.14621543884,0.44487413764,2.84065294266,0.0,0.0,10.0687360764
1463693039905570547,2.10833334923,4.21562862396,0.356457322836,5.48893880844,-10.6100177765,0.0,-10.0687360764
1463693039930613496,2.125,4.30076122284,0.205148741603,4.7269282341,-7.54701185226,0.0,10.6100177765
1463693039938186410,2.14166665077,4.36735057831,0.142256975174,3.26384234428,0.0,0.0,-3.06300640106
1463693039954683647,2.15833330154,4.43579483032,0.0471872612834,4.9494638443,-11.4083662033,0.0,-7.54701185226
1463693039971843407,2.17499995232,4.50640773773,-0.0478824563324,3.52407550812,0.0,0.0,11.4083662033
1463693039988444265,2.19166660309,4.57298803329,-0.146532908082,4.46555519104,-11.8380537033,0.0,-11.4083662033
1463693040005925620,2.20833325386,4.64646959305,-0.341591835022,4.35221147537,-11.5690174103,0.0,11.8380537033
1463693040022086022,2.22499990463,4.71675348282,-0.438000321388,4.08184671402,0.0,0.0,-0.269036859274
1463693040039293563,2.2416665554,4.78237581253,-0.521138727665,3.79284262657,-9.97661304474,0.0,-11.5690174103
1463693040056438594,2.2583334446,4.84898424149,-0.604277193546,4.2001824379,0.0,0.0,9.97661304474
1463693040072245485,2.27500009537,4.9128370285,-0.667013347149,3.46215462685,-7.5283408165,0.0,-9.97661304474
1463693040088407447,2.29166674614,4.97329568863,-0.761249363422,3.79288816452,-3.77997612953,0.0,7.5283408165
1463693040106220167,2.30833339691,5.04025554657,-0.792749166489,4.24227380753,0.0,0.0,-3.74836492538
1463693040134180721,2.32500004768,5.10335254669,-0.831318736076,3.32938933372,-4.62835454941,-20.0,-3.77997612953
1463693040137833726,2.34166669846,5.16591978073,-0.869888365269,4.17869186401,0.0,-20.0,4.62835454941
1463693040154890414,2.35833334923,5.23482131958,-0.869888365269,4.08948707581,0.0,-20.0,-4.62835454941
1463693040171093504,2.375,5.3018450737,-0.871473133564,3.95336079597,-0.190168246627,-20.0,0.0
1463693040188722843,2.39166665077,5.3675069809,-0.873057842255,3.92607426643,0.0,-20.0,0.190168246627
1463693040205051394,2.40833330154,5.43252086639,-0.872302949429,3.87555742264,0.0905868113041,-20.0,-0.190168246627
1463693040222179726,2.42499995232,5.49640464783,-0.871026217937,3.79053258896,0.0626196488738,-20.0,-0.0905868113041
1463693040238342989,2.44166660309,5.55879497528,-0.870504438877,3.69629240036,0.0,-20.0,0.0279671661556
1463693040254921303,2.45833325386,5.62061595917,-0.868475615978,3.72220110893,0.243454784155,-20.0,0.0626196488738
1463693040271365963,2.47499990463,5.68174409866,-0.865361094475,3.61318206787,0.130287453532,-20.0,-0.243454784155
1463693040288907333,2.4916665554,5.74083757401,-0.864702880383,3.47805643082,-0.0513000115752,-20.0,0.113167323172
1463693040305895758,2.5083334446,5.7973780632,-0.867801070213,3.30680966377,-0.320480316877,-20.0,0.181587472558
1463693040355014904,2.52500009537,5.85012054443,-0.877522051334,3.02224135399,-0.846042990685,0.0,0.269180297852
1463693040360310584,2.54166674614,5.90010881424,-0.891641318798,2.97638869286,-0.848267793655,0.0,0.525562703609
1463693040367285161,2.55833339691,5.95267295837,-0.898710250854,3.33128976822,0.0,0.0,0.0022248129826
1463693040371133218,2.57500004768,6.00787687302,-0.898710250854,3.29319143295,0.0,0.0,-0.848267793655
1463693040389717168,2.59166669846,6.05333852768,-0.917644739151,2.16222929955,-2.272138834,0.0,0.0
1463693040406332224,2.60833334923,6.09010267258,-0.953574895859,2.24943351746,-2.03948187828,0.0,2.272138834
1463693040422761879,2.625,6.13573598862,-0.97057056427,3.22660017014,0.0,0.0,-0.232657119632
1463693040438518337,2.64166665077,6.17447662354,-1.00058603287,1.42225301266,-3.60185575485,0.0,-2.03948187828
1463693040455848552,2.65833330154,6.21294736862,-1.03060150146,3.19425320625,0.0,0.0,3.60185575485
1463693040472131161,2.67499995232,6.24917030334,-1.06451046467,1.15249919891,-4.06906938553,0.0,-3.60185575485
1463693040488197980,2.69166660309,6.27272319794,-1.12348973751,1.67380869389,-3.00844526291,0.0,4.06906938553
1463693040504651023,2.70833325386,6.31305265427,-1.14856004715,3.16577076912,0.0,0.0,-1.06062400341
1463693040546614671,2.72499990463,6.34484672546,-1.1905810833,0.649496972561,-5.04251527786,0.0,-3.00844526291
1463693040551675694,2.7416665554,6.3541431427,-1.27774512768,0.466081172228,-5.41717195511,0.0,5.04251527786
1463693040554435154,2.7583334446,6.38436841965,-1.32288825512,3.16096138954,0.0,0.0,0.374656558037
1463693040571615047,2.77500009537,6.43702840805,-1.32288825512,3.15819454193,0.0,0.0,-5.41717195511
1463693040588637342,2.79166674614,6.46563720703,-1.37194621563,0.274879515171,-5.88696622849,0.0,0.0
1463693040604668998,2.80833339691,6.47302484512,-1.46456563473,0.611623942852,-5.22736358643,0.0,5.88696622849
1463693040621829158,2.82500004768,6.50461578369,-1.50812709332,3.17927932739,0.0,0.0,-0.659602224827
1463693040639353010,2.84166669846,6.54493093491,-1.53448617458,1.65858399868,-3.16310095787,0.0,-5.22736358643
1463693040656557530,2.85833334923,6.56606006622,-1.6010620594,0.876917541027,-4.82600593567,0.0,3.16310095787
1463693040672218820,2.875,6.60003376007,-1.64127886295,3.19991016388,0.0,0.0,1.66290473938
1463693040688319034,2.89166665077,6.63599538803,-1.67856669426,1.1154665947,-4.47454595566,0.0,-4.82600593567
1463693040705516616,2.90833330154,6.6721572876,-1.71585452557,3.22394180298,0.0,0.0,4.47454595566
1463693040735185503,2.92499995232,6.7260518074,-1.71585452557,3.24344491959,0.0,0.0,-4.47454595566
1463693040740344817,2.94166660309,6.76432466507,-1.75183570385,1.34925627708,-4.31773090363,0.0,0.0
1463693040755051764,2.95833325386,6.78638267517,-1.82540082932,1.29772603512,-4.51009321213,0.0,4.31773090363
1463693040771582766,2.97499990463,6.81446504593,-1.88635325432,2.0721757412,-2.80419683456,0.0,0.192362159491
1463693040788257750,2.9916665554,6.84881639481,-1.93418955803,2.04994893074,-2.93615579605,0.0,-1.70589637756
1463693040805312200,3.0083334446,6.89346170425,-1.95865750313,3.30748438835,0.0,0.0,0.13195900619
1463693040823315057,3.02500009537,6.93532896042,-1.99251008034,1.71660149097,-4.06230449677,0.0,-2.93615579605
1463693040838301302,3.04166674614,6.96967983246,-2.04647040367,2.40548539162,-2.41294574738,0.0,4.06230449677
1463693040855666428,3.05833339691,7.00883769989,-2.09009242058,2.29351067543,-2.82168078423,0.0,-1.64935874939
1463693040872075234,3.07500004768,7.05605554581,-2.11360645294,3.37263011932,0.0,0.0,0.408735066652
