%time,field.sys_time,field.q0,field.q1,field.dq0,field.dq1,field.sac0,field.u0
1463692904965258233,0.0,0.0,0.0,0.0,0.0,0.0,5.12162780762
1463692904971007327,0.00833333376795,3.14159274101,-0.190723091364,0.0,0.0,0.0,0.0
1463692904988665945,0.0250000003725,3.14197087288,-0.191483169794,0.0453999787569,-0.091209217906,0.0,0.0
1463692905004451375,0.0416666679084,3.1427795887,-0.193111941218,0.0516375638545,-0.104242660105,0.0,0.091209217906
1463692905020852407,0.0583333335817,3.1435816288,-0.194737270474,0.0445993058383,-0.0907974243164,0.0,0.0130334421992
1463692905037450563,0.0750000029802,3.14394521713,-0.195493906736,-0.000972687033936,0.0,0.0,-0.0134452357888
1463692905054266178,0.0916666686535,3.14425778389,-0.196157440543,0.0384737625718,-0.0796239078045,0.0,-0.0907974243164
1463692905071993900,0.108333334327,3.14456534386,-0.19682097435,-0.00156194728334,0.0,0.0,0.0796239078045
1463692905087222933,0.125,3.14464426041,-0.197035759687,0.0110329249874,-0.0257742721587,0.0,-0.0796239078045
1463692905104500544,0.141666665673,3.14518046379,-0.198178216815,0.0533118695021,-0.111319601536,0.0,0.0257742721587
1463692905126047456,0.158333331347,3.14610600471,-0.200117245317,0.0577626600862,-0.121364876628,0.0,0.0855453237891
1463692905137599143,0.17499999702,3.14655995369,-0.20112863183,-0.00329282972962,0.0,0.0,0.0100452778861
1463692905154126024,0.191666662693,3.14655709267,-0.20123976469,0.00295697851107,-0.0133363390341,0.0,-0.121364876628
1463692905170843845,0.208333328366,3.1468360424,-0.201930195093,0.0305017959327,-0.0695153325796,0.0,0.0133363390341
1463692905187628113,0.22499999404,3.14787650108,-0.204167410731,0.0943544283509,-0.198951110244,0.0,0.0561789982021
1463692905205804091,0.241666659713,3.1486158371,-0.205825343728,-0.00563909253106,0.0,0.0,0.129435777664
1463692905222715987,0.258333325386,3.14954304695,-0.20788629353,0.116915680468,-0.247313812375,0.0,-0.198951110244
1463692905238226946,0.27500000596,3.15291595459,-0.214890271425,0.287847608328,-0.593164145947,0.0,0.247313812375
1463692905255823838,0.291666656733,3.15523409843,-0.219833299518,-0.00968746095896,0.0,0.0,0.345850348473
1463692905270793979,0.308333337307,3.15535831451,-0.220425263047,0.0246040783823,-0.0710351020098,0.0,-0.593164145947
1463692905288419300,0.324999988079,3.15441441536,-0.218909531832,-0.137871295214,0.252922534943,0.0,0.0710351020098
1463692905304236072,0.341666668653,3.1531624794,-0.216801851988,-0.0123640196398,0.0,0.0,-0.323957651854
1463692905331392726,0.358333319426,3.14678263664,-0.204412847757,-0.753216028214,1.48667919636,0.0,0.252922534943
1463692905336663352,0.375,3.14042258263,-0.192023858428,-0.009984950535,0.0,0.0,-1.48667919636
1463692905354571892,0.391666680574,3.12711238861,-0.165617644787,-1.58724236488,3.16874647141,0.0,1.48667919636
1463692905370954791,0.408333331347,3.11387205124,-0.139211416245,-0.0016071582213,0.0,0.0,-3.16874647141
1463692905388045203,0.425000011921,3.09377002716,-0.0988347232342,-2.41063427925,4.84520339966,0.0,3.16874647141
1463692905405829210,0.441666662693,3.05699849129,-0.024675577879,-2.00193572044,4.05389404297,0.0,-4.84520339966
1463692905420912483,0.458333343267,3.02182865143,0.0468092933297,-2.2184510231,4.52429056168,0.0,0.79130923748
1463692905437715657,0.47499999404,2.98581528664,0.120611175895,-2.10314822197,4.33193540573,0.0,-0.470396518707
1463692905454681173,0.491666674614,2.96865487099,0.156710639596,0.0438951551914,0.0,0.0,0.192355215549
1463692905472235340,0.508333325386,2.94081759453,0.21518214047,-3.38436698914,7.01657962799,0.0,4.33193540573
1463692905487810167,0.524999976158,2.89237070084,0.31628036499,-2.42928266525,5.11520576477,0.0,-7.01657962799
1463692905504660157,0.541666686535,2.87260365486,0.358907073736,0.0572376549244,0.0,0.0,1.90137386322
1463692905534086999,0.558333337307,2.8521604538,0.403852015734,-2.51040625572,5.39339542389,0.0,5.11520576477
1463692905538220393,0.574999988079,2.79840064049,0.519481599331,-3.94076108932,8.48215293884,0.0,-5.39339542389
1463692905553963730,0.591666638851,2.76585054398,0.590166211128,0.0347421616316,0.0,0.0,-3.08875727654
1463692905570751505,0.608333349228,2.74414515495,0.638809859753,-2.63940620422,5.83723974228,0.0,8.48215293884
1463692905587557544,0.625,2.68551659584,0.769061684608,-4.39600467682,9.79298019409,0.0,-5.83723974228
1463692905605096466,0.641666650772,2.6485376358,0.85066986084,-0.0414758734405,0.0,0.0,-3.95574069023
1463692905621101114,0.658333361149,2.62322854996,0.907541334629,-2.99561882019,6.82457685471,0.0,9.79298019409
1463692905640306658,0.675000011921,2.56406784058,1.04399228096,-4.10366201401,9.54953384399,0.0,-6.82457685471
1463692905654556992,0.691666662693,2.52865409851,1.1235717535,-0.145989701152,0.0,0.0,-2.72495675087
1463692905671754217,0.708333313465,2.4973590374,1.19545710087,-3.60940718651,8.62625312805,0.0,9.54953384399
1463692905687718427,0.725000023842,2.44986414909,1.30810177326,-2.08998227119,4.89109706879,0.0,-8.62625312805
1463692905705828553,0.741666674614,2.41604924202,1.38828635216,-1.96781551838,4.73106145859,0.0,3.73515605927
1463692905726802672,0.758333325386,2.39824795723,1.42771196365,-0.168323531747,0.0,-20.0,0.1600356251
1463692905737341572,0.774999976158,2.37673783302,1.48007762432,-2.41290831566,6.28388738632,-20.0,4.73106145859
1463692905754027709,0.791666686535,2.34474039078,1.56307983398,-1.42676913738,3.67637896538,-20.0,-6.28388738632
1463692905771343056,0.808333337307,2.33203125,1.59371638298,-0.098341152072,0.0,-20.0,2.60750818253
1463692905787670619,0.824999988079,2.31392359734,1.64315056801,-2.07457613945,5.93210077286,-20.0,3.67637896538
1463692905805912943,0.841666638851,2.28842520714,1.71630489826,-0.985233187675,2.84642577171,-20.0,-5.93210077286
1463692905820842073,0.858333349228,2.28024530411,1.7400251627,0.00366014777683,0.0,-20.0,3.08567523956
1463692905838406646,0.875,2.26864790916,1.7775592804,-1.39536523819,4.50410032272,-20.0,2.84642577171
1463692905855324147,0.891666650772,2.24988079071,1.84021401405,-0.856667816639,3.0144739151,-20.0,-4.50410032272
1463692905870757110,0.908333361149,2.24394845963,1.86533463001,0.144788131118,0.0,-20.0,1.48962640762
1463692905888706205,0.925000011921,2.23580551147,1.90098178387,-1.12194609642,4.27764844894,-20.0,3.0144739151
1463692905905669567,0.941666662693,2.22346830368,1.95321631432,-0.358541697264,1.99049985409,-20.0,-4.27764844894
1463692905934384907,0.958333313465,2.22304034233,1.96980381012,0.307200402021,0.0,0.0,2.28714847565
1463692905940897128,0.975000023842,2.22297215462,1.98865616322,-0.3153847754,2.2622756958,0.0,1.99049985409
1463692905955045508,0.991666674614,2.22394323349,2.00750851631,0.431907743216,0.0,0.0,-2.2622756958
1463692905971931873,1.00833332539,2.22396969795,2.03282308578,-0.428734183311,3.03777313232,0.0,2.2622756958
1463692905987661246,1.02499997616,2.21988892555,2.07511734962,-0.0609397292137,2.0375187397,0.0,-3.03777313232
1463692906004631314,1.04166662693,2.22452187538,2.09209656715,0.616890847683,0.0,0.0,1.00025451183
1463692906021191821,1.0583332777,2.22703838348,2.11926412582,-0.314916163683,3.26009178162,0.0,2.0375187397
1463692906037904276,1.07500004768,2.22502851486,2.16471481323,0.0737256705761,2.19399762154,0.0,-3.26009178162
1463692906055357731,1.09166669846,2.22911882401,2.19360876083,0.417127549648,1.27328503132,0.0,1.06609404087
1463692906070959453,1.10833334923,2.2398378849,2.2042195797,0.869144678116,0.0,0.0,0.920712590218
1463692906088931852,1.125,2.24906301498,2.22270441055,0.23786380887,2.21818089485,0.0,1.27328503132
1463692906104459952,1.14166665077,2.25933432579,2.24118924141,0.994713902473,0.0,0.0,-2.21818089485
1463692906132910028,1.15833330154,2.27332305908,2.25081586838,0.683916211128,1.15521335602,-20.0,2.21818089485
1463692906138328895,1.17499995232,2.28498387337,2.27077722549,0.715397655964,1.24013149738,-20.0,-1.15521335602
1463692906155115758,1.1916667223,2.29890561104,2.28683686256,0.955202937126,0.687017083168,-20.0,-0.0849180519581
1463692906170812645,1.20833337307,2.31720876694,2.2925620079,1.2411813736,0.0,-20.0,0.55311435461
1463692906187570340,1.22500002384,2.33577823639,2.3000729084,0.987140119076,0.901332557201,-20.0,0.687017083168
1463692906206617953,1.24166667461,2.35366678238,2.31226205826,1.15950226784,0.561346530914,-20.0,-0.901332557201
1463692906221056595,1.25833332539,2.37508630753,2.31693983078,1.41083776951,0.0,-20.0,0.339986026287
1463692906238078714,1.27499997616,2.39550971985,2.32660913467,1.0399749279,1.1603102684,-20.0,0.561346530914
1463692906255875503,1.29166662693,2.41471266747,2.34201312065,1.26436042786,0.688161671162,-20.0,-1.1603102684
1463692906271055049,1.3083332777,2.43833994865,2.34774780273,1.57093596458,0.0,-20.0,0.472148537636
1463692906287810176,1.32500004768,2.46451234818,2.34875679016,1.56975114346,0.121075280011,-20.0,0.688161671162
1463692906304606319,1.34166669846,2.49165153503,2.34921145439,1.68693649769,-0.0665066465735,-20.0,-0.121075280011
1463692906330724290,1.35833334923,2.51988959312,2.3486571312,1.70163142681,0.0,-20.0,0.187581926584
1463692906337683607,1.375,2.54854083061,2.34874892235,1.73653388023,0.0109923193231,-20.0,-0.0665066465735
1463692906355103466,1.39166665077,2.57838368416,2.34751749039,1.84458220005,-0.158750370145,-20.0,-0.0109923193231
1463692906371878140,1.40833330154,2.60885381699,2.34619450569,1.81184947491,0.0,-20.0,0.169742688537
1463692906387749203,1.42499995232,2.63936805725,2.3460931778,1.84986889362,-0.0121752629057,-20.0,-0.158750370145
1463692906405251287,1.4416667223,2.67015171051,2.34657406807,1.8441542387,0.0698921903968,-20.0,0.0121752629057
1463692906422479262,1.45833337307,2.70138287544,2.34715652466,1.90358281136,0.0,-20.0,-0.0820674523711
1463692906440235411,1.47500002384,2.73585796356,2.34156823158,2.23344731331,-0.670610129833,-20.0,0.0698921903968
1463692906454950344,1.49166667461,2.77233457565,2.33240056038,2.14373803139,-0.42948397994,-20.0,0.670610129833
1463692906471611748,1.50833332539,2.80655002594,2.32882165909,1.96210348606,0.0,-20.0,-0.241126179695
1463692906487970945,1.52499997616,2.84357738495,2.31997823715,2.48119854927,-1.06120204926,-20.0,-0.42948397994
1463692906505094090,1.54166662693,2.88298797607,2.3065571785,2.24806880951,-0.549331128597,-20.0,1.06120204926
1463692906532375964,1.5583332777,2.91832542419,2.30197954178,1.99242222309,0.0,0.0,-0.511870861053
1463692906537183103,1.57500004768,2.95922827721,2.28633117676,2.91592121124,-1.87778389454,0.0,-0.549331128597
1463692906556125660,1.59166669846,3.0037689209,2.26329946518,2.42894935608,-0.886027097702,0.0,1.87778389454
1463692906571694941,1.60833334923,3.04059648514,2.2559158802,1.99034869671,0.0,0.0,-0.991756796837
1463692906587606062,1.625,3.07785844803,2.24764895439,2.48108816147,-0.992025911808,0.0,-0.886027097702
1463692906604846932,1.64166665077,3.11921596527,2.23098897934,2.48183226585,-1.00717055798,0.0,0.992025911808
1463692906622705889,1.65833330154,3.1563167572,2.2225959301,1.97024333477,0.0,0.0,0.0151446321979
1463692906637945498,1.67499995232,3.19749212265,2.20566225052,2.97082161903,-2.03204774857,0.0,-1.00717055798
1463692906654594974,1.6916667223,3.24712109566,2.17124557495,2.98465871811,-2.09796237946,0.0,2.03204774857
1463692906671353369,1.70833337307,3.28804302216,2.15376257896,1.9259660244,0.0,0.0,0.0659146010876
1463692906687448470,1.72500002384,3.33373904228,2.12573552132,3.55755567551,-3.36322045326,0.0,-2.09796237946
1463692906704700541,1.74166667461,3.37914466858,2.09770870209,1.8911087513,0.0,0.0,3.36322045326
1463692906736119744,1.75833332539,3.44770407677,2.02045917511,6.33603382111,-9.26996135712,0.0,-3.36322045326
1463692906740927155,1.77499997616,3.51679468155,1.94320940971,1.954829216,0.0,0.0,9.26996135712
1463692906754645928,1.79166662693,3.58298373222,1.86954629421,5.98784542084,-8.83958244324,0.0,-9.26996135712
1463692906771247941,1.8083332777,3.64988255501,1.7958830595,2.04001402855,0.0,0.0,8.83958244324
1463692906787586627,1.82500004768,3.71913599968,1.71318376064,6.27039575577,-9.92391490936,0.0,-8.83958244324
1463692906805794460,1.84166669846,3.81188344955,1.57541334629,4.85932016373,-6.60854101181,0.0,9.92391490936
1463692906821292311,1.85833334923,3.87146854401,1.52034211159,2.29088759422,0.0,0.0,-3.31537413597
1463692906839015348,1.875,3.94231319427,1.42938733101,6.21047210693,-10.9145822525,0.0,-6.60854101181
1463692906855342547,1.89166665077,4.01525592804,1.33843243122,2.54263687134,0.0,0.0,10.9145822525
1463692906870836328,1.90833330154,4.08640050888,1.24420070648,5.99469995499,-11.3078041077,0.0,-10.9145822525
1463692906889224532,1.92499995232,4.17680692673,1.08785498142,4.85408115387,-7.45368766785,0.0,11.3078041077
1463692906905031779,1.9416667223,4.24223804474,1.02574086189,2.99767899513,0.0,0.0,-3.85411667824
1463692906942109526,1.95833337307,4.32373332977,0.875532329082,6.78175115585,-18.0250301361,0.0,-7.45368766785
1463692906944933629,1.97500002384,4.41145944595,0.725323736668,3.74538850784,0.0,0.0,18.0250301361
1463692906954595334,1.99166667461,4.47309970856,0.725323736668,3.65142560005,0.0,0.0,-18.0250301361
1463692906971472881,2.0083334446,4.54148864746,0.644769847393,4.5552406311,-9.66646671295,0.0,0.0
1463692906987590074,2.02500009537,4.61125898361,0.564215958118,3.81720161438,0.0,0.0,9.66646671295
1463692907005483613,2.04166674614,4.67689371109,0.482381075621,4.0590004921,-9.82018756866,0.0,-9.66646671295
1463692907022302443,2.05833339691,4.74369716644,0.351900994778,3.95738124847,-5.83742046356,0.0,9.82018756866
1463692907040175825,2.07500004768,4.80901575089,0.260115355253,3.88084077835,-5.17685651779,0.0,-3.98276638985
1463692907055820109,2.09166669846,4.87565374374,0.216974884272,4.11571836472,0.0,0.0,-0.660564005375
1463692907071876060,2.10833334923,4.93938493729,0.175487115979,3.53201937675,-4.9785323143,0.0,-5.17685651779
1463692907087807932,2.125,4.99540185928,0.0761143192649,3.19004440308,-6.94620275497,0.0,4.9785323143
1463692907105175779,2.14166665077,5.05659818649,0.0182292964309,4.15353059769,0.0,0.0,1.96767055988
1463692907139280997,2.15833330154,5.11273288727,-0.0486341118813,2.58262181282,-8.02360916138,-14.9641618729,-6.94620275497
1463692907142996871,2.17499995232,5.16870594025,-0.115497522056,4.13411664963,0.0,-14.9641618729,8.02360916138
1463692907154652704,2.19166660309,5.23686647415,-0.115497522056,4.04518795013,0.0,-14.9641618729,-8.02360916138
1463692907170603311,2.20833325386,5.29801559448,-0.136552706361,3.29265213013,-2.52662229538,-14.9641618729,0.0
1463692907187814647,2.22499990463,5.35615873337,-0.164937347174,3.68453502655,-0.879533946514,-14.9641618729,2.52662229538
1463692907206234780,2.2416665554,5.41919088364,-0.172266796231,3.87934923172,0.0,-14.9641618729,-1.64708840847
1463692907221065607,2.2583334446,5.48217201233,-0.175362959504,3.67838573456,-0.371539801359,-14.9641618729,-0.879533946514
1463692907237923745,2.27500009537,5.54391622543,-0.178655162454,3.73088526726,-0.023525243625,-14.9641618729,0.371539801359
1463692907255768805,2.29166674614,5.60553455353,-0.179027348757,3.66336250305,-0.0211360007524,-14.9641618729,-0.348014563322
1463692907270974498,2.30833339691,5.66612529755,-0.179203480482,3.60748744011,0.0,-14.9641618729,-0.00238924426958
1463692907287612858,2.32500004768,5.72502803802,-0.180942893028,3.46083569527,-0.208729445934,-14.9641618729,-0.0211360007524
1463692907304998573,2.34166669846,5.78299427032,-0.182682305574,3.49514055252,0.0,-14.9641618729,0.208729445934
1463692907339514403,2.35833334923,5.84081792831,-0.182682305574,3.44369053841,0.0,0.0,-0.208729445934
1463692907345559409,2.375,5.88691806793,-0.206584721804,2.08833742142,-2.86828994751,0.0,0.0
1463692907353809574,2.39166665077,5.9324631691,-0.230487138033,3.37708950043,0.0,0.0,2.86828994751
1463692907371141617,2.40833330154,5.97999382019,-0.248313233256,2.32655787468,-2.13913178444,0.0,-2.86828994751
1463692907388114303,2.42499995232,6.01650285721,-0.288140296936,2.05455613136,-2.64011454582,0.0,2.13913178444
1463692907405047597,2.44166660309,6.04880094528,-0.335677206516,1.8211889267,-3.06431508064,0.0,0.500982820988
1463692907421733720,2.45833325386,6.09135961533,-0.36121314764,3.28587675095,0.0,0.0,0.424200564623
1463692907438213118,2.47499990463,6.12308883667,-0.407635629177,0.521594822407,-5.57069826126,0.0,-3.06431508064
1463692907454937787,2.4916665554,6.13734340668,-0.488926619291,1.18895709515,-4.18421936035,0.0,5.57069826126
1463692907471812675,2.5083334446,6.17423439026,-0.523795127869,3.23799276352,0.0,0.0,-1.38647890091
1463692907488286754,2.52500009537,6.1975851059,-0.585131108761,-0.435956031084,-7.36031579971,0.0,-4.18421936035
1463692907504043405,2.54166674614,6.220703125,-0.646467030048,3.21016120911,0.0,0.0,7.36031579971
1463692907543791334,2.55833339691,6.24438905716,-0.706095576286,-0.367887675762,-7.15542173386,0.0,-7.36031579971
1463692907546273806,2.57500004768,6.24948978424,-0.802749752998,0.9799913764,-4.44308137894,0.0,7.15542173386
1463692907555936041,2.59166669846,6.26557397842,-0.877198576927,0.950100541115,-4.4907746315,0.0,-2.71234035492
1463692907571000482,2.60833334923,6.30000925064,-0.914621651173,3.1821615696,0.0,0.0,0.0476933345199
1463692907587606330,2.625,6.32765102386,-0.96549063921,0.134831100702,-6.10427522659,0.0,-4.4907746315
1463692907605098630,2.64166665077,6.33879089355,-1.04940795898,1.20193970203,-3.96580266953,0.0,6.10427522659
1463692907622253370,2.65833330154,6.37525272369,-1.08245635033,3.17347931862,0.0,0.0,-2.13847279549
1463692907639144746,2.67499995232,6.40336084366,-1.13250398636,0.199507877231,-6.00571537018,0.0,-3.96580266953
1463692907654186966,2.69166660309,6.43150520325,-1.18255162239,3.17780900002,0.0,0.0,6.00571537018
1463692907671927818,2.70833325386,6.46161413193,-1.22916150093,0.435296624899,-5.5931854248,0.0,-6.00571537018
1463692907687946667,2.72499990463,6.47650384903,-1.30701398849,1.35146701336,-3.74912405014,0.0,5.5931854248
1463692907704502087,2.7416665554,6.51435756683,-1.33825671673,3.19097614288,0.0,0.0,-1.84406137466
1463692907736385938,2.7583334446,6.53045701981,-1.4153778553,-1.25904738903,-9.25453281403,0.0,-3.74912405014
1463692907742564438,2.77500009537,6.54701900482,-1.49249899387,3.24649500847,0.0,0.0,9.25453281403
1463692907755166781,2.79166674614,6.58796596527,-1.52025175095,1.66710710526,-3.33033585548,0.0,-9.25453281403
1463692907771718779,2.80833339691,6.6290345192,-1.54800450802,3.2611246109,0.0,0.0,3.33033585548
1463692907788499978,2.82500004768,6.66563415527,-1.58656656742,1.13082003593,-4.62744998932,0.0,-3.33033585548
1463692907806059517,2.84166669846,6.68913412094,-1.65405905247,1.68920886517,-3.47164487839,0.0,4.62744998932
1463692907822616723,2.85833334923,6.73066425323,-1.68298947811,3.29440951347,0.0,0.0,-1.15580487251
1463692907838145241,2.875,6.7689204216,-1.72102129459,1.29630208015,-4.56382226944,0.0,-3.47164487839
1463692907854776885,2.89166665077,6.80745983124,-1.75905311108,3.3284368515,0.0,0.0,4.56382226944
1463692907873527073,2.90833330154,6.84685182571,-1.79753863811,1.39861619473,-4.61826562881,0.0,-4.56382226944
1463692907888157340,2.92499995232,6.87406587601,-1.8659350872,1.86705708504,-3.58930253983,0.0,4.61826562881
1463692907904936490,2.94166660309,6.9177479744,-1.89584600925,3.37481188774,0.0,0.0,-1.02896285057
1463692907936707267,2.95833325386,6.95993709564,-1.93241155148,1.68786525726,-4.38787555695,0.0,-3.58930253983
1463692907939730122,2.97499990463,7.00247955322,-1.96897721291,3.41724824905,0.0,0.0,4.38787555695
1463692907954946469,2.9916665554,7.04638671875,-2.005641222,1.85159385204,-4.39967489243,0.0,-4.38787555695
1463692907971252708,3.0083334446,7.08090353012,-2.06981801987,2.29040837288,-3.30153441429,0.0,4.39967489243
1463692907988607901,3.02500009537,7.12137079239,-2.11933374405,2.56566619873,-2.64037847519,0.0,-1.09814059734
1463692908004190510,3.04166674614,7.17171192169,-2.14133691788,3.47527384758,0.0,0.0,-0.661155760288
1463692908021772906,3.05833339691,7.22173070908,-2.16881847382,2.52700424194,-3.29776978493,0.0,-2.64037847519
