%time,field.sys_time,field.q0,field.q1,field.dq0,field.dq1,field.sac0,field.u0
1463692343925033798,0.0,0.0,0.0,0.0,0.0,0.0,-0.512467503548
1463692343926506041,0.00833333376795,3.14159274101,3.30845355988,0.0,0.0,0.0,0.0
1463692343941857581,0.0250000003725,3.14117026329,3.30930185318,-0.050679128617,0.101815097034,0.0,0.0
1463692343958114300,0.0416666679084,3.14246869087,3.30669808388,0.206494390965,-0.41428938508,0.0,-0.101815097034
1463692343975070383,0.0583333335817,3.14589214325,3.29981184006,0.20430675149,-0.412039786577,0.0,0.516104519367
1463692343991693893,0.0750000029802,3.14757704735,3.2963783741,-0.00212123640813,0.0,0.0,-0.00224961899221
1463692344010867072,0.0916666686535,3.14437913895,3.30272364616,-0.38160905242,0.761448442936,0.0,-0.412039786577
1463692344025200972,0.108333334327,3.13945555687,3.31255578995,-0.209240093827,0.418404221535,0.0,-0.761448442936
1463692344041849339,0.125,3.13771367073,3.31604242325,0.000205820586416,0.0,0.0,0.343044191599
1463692344058169483,0.141666665673,3.13928818703,3.31289100647,0.188754439354,-0.378167062998,0.0,0.418404221535
1463692344075219808,0.158333331347,3.14085936546,3.30973958969,-0.000204263749765,0.0,0.0,0.378167062998
1463692344093614986,0.17499999702,3.14016222954,3.3111345768,-0.083458006382,0.167379841208,0.0,-0.378167062998
1463692344121658445,0.191666662693,3.13846349716,3.31455135345,-0.120395027101,0.242630004883,0.0,-0.167379841208
1463692344125561085,0.208333328366,3.13929033279,3.31291675568,0.219610318542,-0.438771724701,0.0,-0.0752501562238
1463692344141651833,0.22499999404,3.14112329483,3.30926036835,0.000336014665663,0.0,0.0,0.681401729584
1463692344158895359,0.241666659713,3.13949894905,3.31253528595,-0.195238113403,0.392984300852,0.0,-0.438771724701
1463692344175111690,0.258333325386,3.13788437843,3.31580996513,0.00148390315007,0.0,0.0,-0.392984300852
1463692344192305287,0.27500000596,3.13705921173,3.31752276421,-0.100515291095,0.205511108041,0.0,0.392984300852
1463692344208200885,0.291666656733,3.135379076,3.32097196579,-0.101095058024,0.208391726017,0.0,-0.205511108041
1463692344225125781,0.308333337307,3.13456678391,3.3227083683,0.00362430023961,0.0,0.0,-0.0028806165792
1463692344241416406,0.324999988079,3.13422560692,3.32352423668,-0.0445542670786,0.0979074090719,0.0,0.208391726017
1463692344259670680,0.341666668653,3.13389611244,3.32434034348,0.00499288924038,0.0,0.0,-0.0979074090719
1463692344275229814,0.358333319426,3.13447403908,3.32335615158,0.0643768906593,-0.118096798658,0.0,0.0979074090719
1463692344291939177,0.375,3.13505935669,3.32237195969,0.00586334522814,0.0,0.0,0.118096798658
1463692344335270390,0.391666680574,3.13386869431,3.32496905327,-0.148756116629,0.311650365591,0.0,-0.118096798658
1463692344338986266,0.408333331347,3.13358283043,3.32577896118,0.114449836314,-0.214449837804,20.0,-0.311650365591
1463692344342274396,0.425000011921,3.13460159302,3.32399201393,0.00780815910548,0.0,20.0,0.526100218296
1463692344358662366,0.441666662693,3.13338136673,3.32671403885,-0.154245555401,0.326643139124,20.0,-0.214449837804
1463692344375597919,0.458333343267,3.13217711449,3.32943606377,0.00974866189063,0.0,20.0,-0.326643139124
1463692344391474294,0.47499999404,3.13255739212,3.3290104866,0.0358817204833,-0.0510590299964,20.0,0.326643139124
1463692344409015941,0.491666674614,3.13294839859,3.32858514786,0.0110298646614,0.0,20.0,0.0510590299964
1463692344425269768,0.508333325386,3.1361644268,3.32250356674,0.374914646149,-0.72976654768,20.0,-0.0510590299964
1463692344442933687,0.524999976158,3.13937473297,3.31642222404,0.0103001650423,0.0,20.0,0.72976654768
1463692344459595322,0.541666686535,3.13881802559,3.31788754463,-0.0770919322968,0.175835132599,20.0,-0.72976654768
1463692344474706773,0.558333337307,3.13669252396,3.3225171566,-0.177974566817,0.379711717367,20.0,-0.175835132599
1463692344492054040,0.574999988079,3.13531184196,3.32568144798,0.0122834844515,0.0,20.0,-0.203876584768
1463692344530514458,0.591666638851,3.13319563866,3.33035182953,-0.266226112843,0.560446977615,-20.0,0.379711717367
1463692344533106696,0.608333349228,3.13109946251,3.33502221107,0.0146931828931,0.0,-20.0,-0.560446977615
1463692344541672178,0.625,3.13027739525,3.33717870712,-0.113330177963,0.258787721395,-20.0,0.560446977615
1463692344558320905,0.641666650772,3.13254332542,3.33316898346,0.385228127241,-0.739945471287,-20.0,-0.258787721395
1463692344575270982,0.658333361149,3.13588523865,3.32700276375,0.0157971549779,0.0,-20.0,0.99873316288
1463692344591431252,0.675000011921,3.1372590065,3.32477807999,0.149074941874,-0.266980975866,-20.0,-0.739945471287
1463692344608593083,0.691666662693,3.13863325119,3.32255315781,0.0158171914518,0.0,-20.0,0.266980975866
1463692344624993727,0.708333313465,3.13926625252,3.32181358337,0.0601593777537,-0.0887539386749,-20.0,-0.266980975866
1463692344643978726,0.725000023842,3.14407324791,3.31268978119,0.516670584679,-1.00608670712,-20.0,0.0887539386749
1463692344659108016,0.741666674614,3.15386843681,3.29349780083,0.658757448196,-1.29695296288,-20.0,0.91733276844
1463692344674911175,0.758333325386,3.15943408012,3.28269004822,0.0091046160087,0.0,-20.0,0.29086625576
1463692344691506864,0.774999976158,3.17617273331,3.24934077263,1.99953484535,-4.00189495087,-20.0,-1.29695296288
1463692344736549201,0.791666686535,3.21167039871,3.17806625366,2.26019001007,-4.55106115341,-20.0,4.00189495087
1463692344740297819,0.808333337307,3.26623153687,3.06790590286,4.28715133667,-8.66816806793,0.0,0.549166321754
1463692344744554739,0.824999988079,3.30191087723,2.99567127228,-0.00564546044916,0.0,0.0,4.11710691452
1463692344758187670,0.841666638851,3.32960247993,2.93892645836,3.32866239548,-6.80937480927,0.0,-8.66816806793
1463692344775055054,0.858333349228,3.39033699036,2.81410551071,3.95946121216,-8.16914463043,0.0,6.80937480927
1463692344793297858,0.875,3.42343497276,2.74602913857,0.0122993309051,0.0,0.0,1.35977005959
1463692344809469985,0.891666650772,3.47950220108,2.62897539139,6.71576976776,-14.0464677811,0.0,-8.16914463043
1463692344825224151,0.908333361149,3.53704953194,2.51192140579,0.189916312695,0.0,0.0,14.0464677811
1463692344842136351,0.925000011921,3.60432481766,2.37197399139,7.88311481476,-16.7936916351,0.0,-14.0464677811
1463692344860191652,0.941666662693,3.67480182648,2.232026577,0.574134171009,0.0,0.0,16.7936916351
1463692344874947474,0.958333313465,3.75275468826,2.0716085434,8.78020000458,-19.2501678467,0.0,-16.7936916351
1463692344891646567,0.975000023842,3.88164973259,1.79382646084,6.68719053268,-14.0836830139,0.0,19.2501678467
1463692344930117376,0.991666674614,3.95144033432,1.67646241188,1.68770515919,0.0,0.0,-5.16648435593
1463692344936407115,1.00833332539,4.04045724869,1.49526000023,8.99429130554,-21.7442893982,0.0,-14.0836830139
1463692344941739880,1.02499997616,4.13862800598,1.31405758858,2.78621506691,0.0,0.0,21.7442893982
1463692344958302078,1.04166662693,4.22947835922,1.14130675793,8.11581897736,-20.7301025391,0.0,-21.7442893982
1463692344975366189,1.0583332777,4.35281133652,0.850455462933,6.68412733078,-14.1720495224,0.0,20.7301025391
1463692344993405818,1.07500004768,4.44571113586,0.732355058193,4.46386861801,0.0,0.0,-6.55805301666
1463692345008719310,1.09166669846,4.53792238235,0.568088889122,6.6014752388,-19.7119407654,0.0,-14.1720495224
1463692345024560914,1.10833334923,4.64601325989,0.256784647703,6.36943626404,-17.6445674896,0.0,19.7119407654
1463692345042182044,1.125,4.75029420853,0.109746567905,6.14429187775,0.0,0.0,-2.06737303734
1463692345060850513,1.14166665077,4.84581518173,-0.0254039373249,5.31821107864,-16.2180595398,0.0,-17.6445674896
1463692345074950328,1.15833330154,4.93881607056,-0.23647852242,5.84188604355,-9.11088943481,0.0,16.2180595398
1463692345092157405,1.17499995232,5.04560804367,-0.312402576208,6.97316646576,0.0,0.0,-7.10717153549
1463692345109738938,1.1916667223,5.14364767075,-0.403471022844,4.79157066345,-10.9282131195,0.0,-9.11088943481
1463692345155299735,1.20833337307,5.2225689888,-0.586347043514,4.67901754379,-11.016907692,0.0,10.9282131195
1463692345158697294,1.22500002384,5.32369613647,-0.678154587746,7.4562087059,0.0,0.0,0.0886947140098
1463692345162755482,1.24166667461,5.44717884064,-0.678154587746,7.36173391342,0.0,0.0,-11.016907692
1463692345174957690,1.25833332539,5.56914615631,-0.678154587746,7.27432775497,0.0,0.0,0.0
1463692345192011136,1.27499997616,5.67868518829,-0.706027388573,5.8703660965,-3.34473109245,0.0,0.0
1463692345208445927,1.29166662693,5.78379774094,-0.743277728558,6.74315834045,-1.12531507015,0.0,3.34473109245
1463692345225017987,1.3083332777,5.89988613129,-0.752655386925,7.18743419647,0.0,0.0,-2.21941590309
1463692345241450593,1.32500004768,6.01541042328,-0.760694026947,6.6754860878,-0.964640557766,0.0,-1.12531507015
1463692345258759939,1.34166669846,6.12848043442,-0.772289514542,6.8929142952,-0.426812559366,0.0,0.964640557766
1463692345275550932,1.35833334923,6.24482440948,-0.775846242905,7.06834316254,0.0,0.0,-0.537828028202
1463692345291236699,1.375,6.35876989365,-0.783123493195,6.60513925552,-0.873265981674,0.0,-0.426812559366
1463692345332027106,1.39166665077,6.46830034256,-0.798517644405,6.53849697113,-0.974032998085,0.0,0.873265981674
1463692345335475613,1.40833330154,6.57558917999,-0.8180975914,6.33615732193,-1.37556397915,0.0,0.100766979158
1463692345342551388,1.42499995232,6.68658208847,-0.829560637474,6.98300933838,0.0,0.0,0.401530981064
1463692345358002591,1.4416667223,6.79122304916,-0.85599899292,5.57391691208,-3.17260432243,0.0,-1.37556397915
1463692345375692630,1.45833337307,6.89549303055,-0.88243740797,6.9384932518,0.0,0.0,3.17260432243
1463692345391922488,1.47500002384,6.99937915802,-0.912984848022,5.52782392502,-3.66569471359,0.0,-3.17260432243
1463692345408434958,1.49166667461,7.10280227661,-0.943532288074,6.88295984268,0.0,0.0,3.66569471359
1463692345425622955,1.50833332539,7.20697879791,-0.97747862339,5.6181883812,-4.07355642319,0.0,-3.66569471359
1463692345441849425,1.52499997616,7.30389118195,-1.03503262997,6.0113120079,-2.8329334259,0.0,4.07355642319
1463692345458040781,1.54166662693,7.40450572968,-1.08208632469,6.06246709824,-2.81350040436,0.0,-1.24062275887
1463692345474620054,1.5583332777,7.51050376892,-1.10553216934,6.65724372864,0.0,0.0,-0.0194330923259
1463692345491772019,1.57500004768,7.61604309082,-1.14673125744,6.00752067566,-4.94389295578,0.0,-2.81350040436
1463692345508630512,1.59166669846,7.72046375275,-1.18793034554,6.5229473114,0.0,0.0,4.94389295578
1463692345546729491,1.60833334923,7.82665538788,-1.26340377331,6.22003650665,-9.05680847168,0.0,-4.94389295578
1463692345552135113,1.625,7.92986440659,-1.33887720108,6.16505908966,0.0,0.0,9.05680847168
1463692345557546262,1.64166665077,8.03307437897,-1.33887720108,6.22012042999,0.0,0.0,-9.05680847168
1463692345575094989,1.65833330154,8.14187049866,-1.37989616394,6.83542108536,-4.92228746414,0.0,0.0
1463692345592359909,1.67499995232,8.25389766693,-1.44829452038,6.6077914238,-3.28551411629,0.0,4.92228746414
1463692345608900032,1.6916667223,8.35840892792,-1.47567379475,5.93358945847,0.0,0.0,-1.63677322865
1463692345625149885,1.70833337307,8.46666526794,-1.50995087624,7.05715084076,-4.11324548721,0.0,-3.28551411629
1463692345641371727,1.72500002384,8.57981586456,-1.56318092346,6.5209441185,-2.27435421944,0.0,4.11324548721
1463692345659075022,1.74166667461,8.68210792542,-1.5821338892,5.75415086746,0.0,0.0,-1.83889126778
1463692345675425120,1.75833332539,8.78544616699,-1.60093426704,6.64644622803,-2.25605607033,0.0,-2.27435421944
1463692345692649706,1.77499997616,8.88854503632,-1.6197347641,5.72534751892,0.0,0.0,2.25605607033
1463692345733012635,1.79166662693,8.98911190033,-1.63114976883,6.34269762039,-1.36979842186,0.0,-2.25605607033
1463692345736328720,1.8083332777,9.09237861633,-1.64862024784,6.04934549332,-0.72665989399,0.0,1.36979842186
1463692345741416774,1.82500004768,9.19028186798,-1.65467572212,5.69901609421,0.0,0.0,-0.643138468266
1463692345759262635,1.84166669846,9.28699111938,-1.65834450722,5.90607357025,-0.440257608891,0.0,-0.72665989399
1463692345775581531,1.85833334923,9.38581848145,-1.66676425934,5.95323324203,-0.570111989975,0.0,0.440257608891
1463692345792339080,1.875,9.48245811462,-1.67151522636,5.64356374741,0.0,0.0,0.129854410887
1463692345808133419,1.89166665077,9.57904815674,-1.6771569252,5.94720888138,-0.677010059357,0.0,-0.570111989975
1463692345825558051,1.90833330154,9.67507171631,-1.68279874325,5.5756649971,0.0,0.0,0.677010059357
1463692345842122658,1.92499995232,9.76874923706,-1.68519079685,5.66555404663,-0.287052989006,0.0,-0.677010059357
1463692345858219199,1.9416667223,9.86233997345,-1.68914842606,5.56535482407,-0.18786278367,0.0,0.287052989006
1463692345874768946,1.95833337307,9.9538974762,-1.69071400166,5.42157649994,0.0,0.0,-0.0991902202368
1463692345892466458,1.97500002384,10.0445165634,-1.69266188145,5.45270681381,-0.233749121428,0.0,-0.18786278367
1463692345934712948,1.99166667461,10.1340246201,-1.69460976124,5.28825616837,0.0,0.0,0.233749121428
1463692345941299793,2.0083334446,10.2215557098,-1.69472026825,5.21551465988,-0.0132588399574,0.0,-0.233749121428
1463692345944109558,2.02500009537,10.306397438,-1.69073402882,4.96546459198,0.491605788469,0.0,0.0132588399574
1463692345958935078,2.04166674614,10.3896751404,-1.68663740158,5.02782726288,0.0,0.0,-0.504864633083
1463692345975385324,2.05833339691,10.4735708237,-1.68981206417,5.03970909119,-0.380958348513,0.0,0.491605788469
1463692345991378353,2.07500004768,10.5564289093,-1.69458901882,4.90323877335,-0.192275941372,0.0,0.380958348513
1463692346008589487,2.09166669846,10.6370458603,-1.69619131088,4.77076911926,0.0,0.0,-0.18868239224
1463692346025309982,2.10833334923,10.7155075073,-1.69464051723,4.64467668533,0.18609392643,0.0,-0.192275941372
1463692346042494632,2.125,10.7922849655,-1.69308972359,4.56858444214,0.0,0.0,-0.18609392643
1463692346058684574,2.14166665077,10.8675012589,-1.69186782837,4.45737314224,0.146630838513,0.0,0.18609392643
1463692346075508774,2.15833330154,10.9408521652,-1.6869995594,4.34470415115,0.437561482191,0.0,-0.146630838513
1463692346092015242,2.17499995232,11.0124692917,-1.68335318565,4.24937200546,0.0,0.0,-0.290930658579
1463692346128670241,2.19166660309,11.0826501846,-1.67635750771,4.17236232758,0.839477062225,0.0,0.437561482191
1463692346133501354,2.20833325386,11.1509485245,-1.66936182976,4.02345323563,0.0,0.0,-0.839477062225
1463692346143739549,2.22499990463,11.2182950974,-1.65767264366,4.0580830574,1.40271449089,0.0,0.839477062225
1463692346158588814,2.2416665554,11.2848243713,-1.63673651218,3.92548918724,1.10962152481,0.0,-1.40271449089
1463692346174727764,2.2583334446,11.3490839005,-1.62069749832,3.78556632996,0.815048694611,0.0,0.293093025684
1463692346191342152,2.27500009537,11.4101457596,-1.61390542984,3.54190564156,0.0,0.0,0.2945728302
1463692346208222974,2.29166674614,11.4691162109,-1.61075854301,3.53454661369,0.377628952265,0.0,0.815048694611
1463692346225229645,2.30833339691,11.527349472,-1.60429644585,3.45342111588,0.397827386856,0.0,-0.377628952265
1463692346242474250,2.32500004768,11.5833339691,-1.6009812355,3.26477599144,0.0,0.0,-0.0201984401792
1463692346260171072,2.34166669846,11.6383876801,-1.59643161297,3.34166836739,0.545942485332,0.0,0.397827386856
1463692346274241204,2.35833334923,11.6945114136,-1.5838572979,3.3931787014,0.962989151478,0.0,-0.545942485332
1463692346293488431,2.375,11.7477827072,-1.57583236694,2.99932575226,0.0,0.0,-0.417046695948
1463692346334216104,2.39166665077,11.8007135391,-1.56573092937,3.3523952961,1.21217465401,0.0,0.962989151478
1463692346339771244,2.40833330154,11.8555088043,-1.54689991474,3.22302627563,1.04754698277,0.0,-1.21217465401
1463692346345556841,2.42499995232,11.9053144455,-1.53817033768,2.75369238853,0.0,0.0,0.164627745748
1463692346359035657,2.44166660309,11.9570770264,-1.52226293087,3.4577498436,1.90888082981,0.0,1.04754698277
1463692346375110285,2.45833325386,12.0181121826,-1.48109722137,3.8664419651,3.03100204468,0.0,-1.90888082981
1463692346392578404,2.47499990463,12.0711364746,-1.45583891869,2.49648094177,0.0,0.0,-1.12212121487
1463692346408584887,2.4916665554,12.1261253357,-1.42476141453,4.1022310257,3.72930407524,0.0,3.03100204468
1463692346425744341,2.5083334446,12.179857254,-1.39368391037,2.34561252594,0.0,0.0,-3.72930407524
1463692346441870454,2.52500009537,12.2331342697,-1.3624972105,4.04758644104,3.74240016937,0.0,3.72930407524
1463692346458792567,2.54166674614,12.2927465439,-1.3158851862,3.10593557358,1.85103702545,0.0,-3.74240016937
1463692346475416028,2.55833339691,12.341673851,-1.29034268856,2.76535868645,1.21407079697,0.0,1.89136314392
1463692346492153687,2.57500004768,12.3825931549,-1.28022539616,2.14495205879,0.0,0.0,0.636966347694
1463692346538245634,2.59166669846,12.4182977676,-1.27993822098,2.13953399658,0.0344613678753,0.0,1.21407079697
1463692346541788286,2.60833334923,12.4474182129,-1.29227268696,1.35498344898,-1.5146048069,0.0,-0.0344613678753
1463692346546731783,2.625,12.4761323929,-1.30489444733,2.09070372581,0.0,0.0,1.54906618595
1463692346558246882,2.64166665077,12.50623703,-1.31419169903,1.52182233334,-1.11566781998,0.0,-1.5146048069
1463692346575689461,2.65833330154,12.52987957,-1.33607506752,1.31527888775,-1.51034188271,0.0,1.11566781998
1463692346592142793,2.67499995232,12.5580053329,-1.34866130352,2.05983328819,0.0,0.0,0.394674122334
1463692346608984652,2.69166660309,12.5916967392,-1.34981334209,1.98313581944,-0.138241514564,0.0,-1.51034188271
1463692346624894450,2.70833325386,12.6252822876,-1.35096526146,2.04711747169,0.0,0.0,0.138241514564
1463692346642056442,2.72499990463,12.6600599289,-1.34959995747,2.12618470192,0.163838133216,0.0,-0.138241514564
1463692346659023517,2.7416665554,12.6936979294,-1.3505051136,1.91041445732,-0.272455692291,0.0,-0.163838133216
1463692346674941672,2.7583334446,12.726688385,-1.35277557373,2.04844450951,0.0,0.0,0.436293840408
1463692346692200594,2.77500009537,12.7560482025,-1.36262595654,1.47474205494,-1.18203938007,0.0,-0.272455692291
1463692346731033288,2.79166674614,12.7797689438,-1.38426029682,1.37172234058,-1.41408813,0.0,1.18203938007
1463692346736222345,2.80833339691,12.7911167145,-1.43175649643,-0.00997384544462,-4.28545188904,0.0,0.232048809528
1463692346741248878,2.82500004768,12.8084430695,-1.46746861935,2.08910679817,0.0,0.0,2.87136387825
1463692346759285120,2.84166669846,12.8257818222,-1.50398910046,-0.00845106039196,-4.38246393204,0.0,-4.28545188904
1463692346775789534,2.85833334923,12.8433971405,-1.54050970078,2.1223256588,0.0,0.0,4.38246393204
1463692346793119133,2.875,12.8494815826,-1.60221481323,-1.39220249653,-7.40462064743,0.0,-4.38246393204
1463692346808507304,2.89166665077,12.8357667923,-1.70633435249,-0.253567129374,-5.08972406387,0.0,7.40462064743
1463692346828167251,2.90833330154,12.8521051407,-1.7487487793,2.21411180496,0.0,0.0,-2.31489682198
1463692346841986536,2.92499995232,12.8564357758,-1.81754791737,-1.69444990158,-8.25589752197,0.0,-5.08972406387
1463692346858328644,2.94166660309,12.861413002,-1.88634705544,2.29175400734,0.0,0.0,8.25589752197
1463692346875189981,2.95833325386,12.8670358658,-1.95537650585,-1.61695659161,-8.28353691101,0.0,-8.25589752197
1463692346891884393,2.97499990463,12.8526382446,-2.06768584251,-0.110795885324,-5.19359731674,0.0,8.28353691101
1463692346929999978,2.9916665554,12.8500118256,-2.15628457069,-0.204346612096,-5.43825101852,0.0,-3.08993983269
1463692346935097141,3.0083334446,12.8684835434,-2.20160341263,2.4209394455,0.0,0.0,0.244653627276
1463692346942834446,3.02500009537,12.8774356842,-2.26833319664,-1.34666514397,-8.00758075714,0.0,-5.43825101852
1463692346958808496,3.04166674614,12.8680496216,-2.3748755455,0.220294162631,-4.77749347687,0.0,8.00758075714
1463692346975137576,3.05833339691,12.8908405304,-2.41468811035,2.5145585537,0.0,0.0,-3.23008751869
1463692346992063489,3.07500004768,12.9075994492,-2.4686563015,-0.50349098444,-6.4761967659,0.0,-4.77749347687
1463692347008349071,3.09166669846,12.9092674255,-2.55570697784,0.703648030758,-3.96988248825,0.0,6.4761967659
