%time,field.sys_time,field.q0,field.q1,field.dq0,field.dq1,field.sac0,field.u0
1463692715486706216,0.0,0.0,0.0,0.0,0.0,0.0,0.120454154909
1463692715503414631,0.00833333376795,3.14169216156,-2.52272391319,0.0119267478585,-0.0239610094577,0.0,0.0
1463692715530393339,0.0250000003725,3.14100694656,-2.52134847641,-0.0941511392593,0.189019069076,0.0,0.0239610094577
1463692715534891528,0.0416666679084,3.1402258873,-2.51977324486,0.000436328788055,0.0,0.0,-0.212980076671
1463692715552245960,0.0583333335817,3.13932681084,-2.51795053482,-0.108335144818,0.218742832541,0.0,0.189019069076
1463692715569499696,0.0750000029802,3.1384344101,-2.51612758636,0.00125226075761,0.0,0.0,-0.218742832541
1463692715586053934,0.0916666686535,3.13608193398,-2.5113556385,-0.283535182476,0.572647571564,0.0,0.218742832541
1463692715602845886,0.108333334327,3.13374686241,-2.50658345222,0.00331268087029,0.0,0.0,-0.572647571564
1463692715618933899,0.125,3.13351202011,-2.5059902668,-0.0314946845174,0.0711813420057,0.0,0.572647571564
1463692715635796664,0.141666665673,3.1334297657,-2.50567960739,0.0216247476637,-0.0339134857059,0.0,-0.0711813420057
1463692715652362569,0.158333331347,3.13365411758,-2.50596237183,0.00530458102003,0.0,0.0,0.105094827712
1463692715670155357,0.17499999702,3.13395214081,-2.50637316704,0.0304622594267,-0.0492971763015,0.0,-0.0339134857059
1463692715685703630,0.191666662693,3.13453173637,-2.50733113289,0.0390759259462,-0.0656487494707,0.0,0.0492971763015
1463692715702468074,0.208333328366,3.13491392136,-2.50787806511,0.00678562745452,0.0,0.0,0.0163515750319
1463692715730186742,0.22499999404,3.13532304764,-2.50846457481,0.0423298366368,-0.0703841894865,-20.0,-0.0656487494707
1463692715735027874,0.241666659713,3.13573932648,-2.50905108452,0.00760220037773,0.0,-20.0,0.0703841894865
1463692715752138967,0.258333325386,3.13586950302,-2.50905108452,0.00804187636822,0.0,-20.0,-0.0703841894865
1463692715769117834,0.27500000596,3.13536524773,-2.50776124001,-0.0685724839568,0.154779568315,-20.0,0.0
1463692715785696847,0.291666656733,3.13560724258,-2.5079498291,0.097608692944,-0.177405402064,-20.0,-0.154779568315
1463692715803193390,0.308333337307,3.13820123672,-2.51284956932,0.213677600026,-0.410559803247,-20.0,0.332184970379
1463692715820224383,0.324999988079,3.1383433342,-2.51283597946,-0.196613535285,0.412203609943,-20.0,0.233154416084
1463692715835616155,0.341666668653,3.13678646088,-2.50940084457,0.00977463275194,0.0,-20.0,-0.822763442993
1463692715852797151,0.358333319426,3.13545775414,-2.50639843941,-0.169223695993,0.360304951668,-20.0,0.412203609943
1463692715869438790,0.375,3.13480353355,-2.50472354889,0.0907320901752,-0.159320563078,-20.0,-0.360304951668
1463692715886259204,0.391666680574,3.13593626022,-2.50661444664,0.0451908744872,-0.0675956904888,-20.0,0.519625484943
1463692715903255708,0.408333331347,3.13641119003,-2.50717782974,0.0117873800918,0.0,-20.0,-0.0917248800397
1463692715933868439,0.425000011921,3.13661050797,-2.50717782974,0.012152181007,0.0,-20.0,-0.0675956904888
1463692715939921347,0.441666662693,3.1351981163,-2.50392723083,-0.181652113795,0.390056580305,-20.0,0.0
1463692715952246459,0.458333343267,3.13416051865,-2.50140094757,0.0571472048759,-0.0869024097919,-20.0,-0.390056580305
1463692715969573466,0.47499999404,3.13285160065,-2.49830055237,-0.214216813445,0.45894536376,-20.0,0.476958990097
1463692715986339372,0.491666674614,3.13119959831,-2.49447607994,0.0159591231495,0.0,-20.0,-0.545847773552
1463692716002966991,0.508333325386,3.13100361824,-2.49353504181,-0.0394721664488,0.112912714481,-20.0,0.45894536376
1463692716020482068,0.524999976158,3.13004946709,-2.49104046822,-0.0750203952193,0.18644797802,-20.0,-0.112912714481
1463692716036176703,0.541666686535,3.12901449203,-2.48834395409,-0.0491727665067,0.137130737305,-20.0,-0.0735352560878
1463692716052547118,0.558333337307,3.12877416611,-2.48720121384,0.0203401315957,0.0,-20.0,0.0493172332644
1463692716069935312,0.574999988079,3.1260869503,-2.48110508919,-0.342809408903,0.731526792049,-20.0,0.137130737305
1463692716086723708,0.591666638851,3.12186360359,-2.47185850143,-0.163984850049,0.378067523241,-20.0,-0.731526792049
1463692716103593719,0.608333349228,3.12071847916,-2.46870803833,0.0265559144318,0.0,-20.0,0.353459298611
1463692716139222621,0.625,3.12117409706,-2.46870803833,0.0281264390796,0.0,0.0,0.378067523241
1463692716143046571,0.641666650772,3.11921000481,-2.46379375458,-0.263814002275,0.589696764946,0.0,0.0
1463692716152774021,0.658333361149,3.1088347435,-2.44190001488,-0.981222093105,2.03756761551,0.0,-0.589696764946
1463692716170589501,0.675000011921,3.09166908264,-2.40618395805,-1.07866919041,2.24836182594,0.0,-1.44787085056
1463692716186725462,0.691666662693,3.08307886124,-2.3874475956,0.0478375777602,0.0,0.0,-0.210794106126
1463692716204430488,0.708333313465,3.06538701057,-2.3501701355,-2.17084336281,4.47327852249,0.0,2.24836182594
1463692716219231895,0.725000023842,3.03081178665,-2.27857375145,-1.97817885876,4.11829185486,0.0,-4.47327852249
1463692716235673177,0.741666674614,3.01494336128,-2.24425458908,0.0739656314254,0.0,0.0,0.354986667633
1463692716253354865,0.758333325386,2.98696112633,-2.18494868279,-3.43184971809,7.1167140007,0.0,4.11829185486
1463692716270641808,0.774999976158,2.93689537048,-2.0804002285,-2.57601809502,5.42912006378,0.0,-7.1167140007
1463692716285490693,0.791666686535,2.91615462303,-2.03515744209,0.0871064215899,0.0,0.0,1.68759357929
1463692716302604857,0.808333337307,2.88311672211,-1.96381628513,-4.05164766312,8.56094741821,0.0,5.42912006378
1463692716328654376,0.824999988079,2.82436680794,-1.83882081509,-2.99833345413,6.43850040436,0.0,-8.56094741821
1463692716335355272,0.841666638851,2.79989242554,-1.78516662121,0.0613909438252,0.0,0.0,2.12244725227
1463692716354730368,0.858333349228,2.76221179962,-1.70223629475,-4.58306741714,9.95163917542,0.0,6.43850040436
1463692716369475686,0.875,2.7240216732,-1.61930596828,0.000275765341939,0.0,0.0,-9.95163917542
1463692716385964598,0.891666650772,2.68318772316,-1.5290210247,-4.90036821365,10.8341989517,0.0,9.95163917542
1463692716402674164,0.908333361149,2.64149856567,-1.43873608112,-0.102310724556,0.0,0.0,-10.8341989517
1463692716419972887,0.925000011921,2.59896612167,-1.34455358982,-5.00160646439,11.3018913269,0.0,10.8341989517
1463692716436416654,0.941666662693,2.51220321655,-1.14669644833,-5.40994262695,12.4409675598,0.0,-11.3018913269
1463692716452314547,0.958333313465,2.46299791336,-1.04302167892,-0.494684576988,0.0,0.0,-1.13907563686
1463692716469479658,0.975000023842,2.42957806587,-0.976714074612,-3.51570916176,7.95692014694,0.0,12.4409675598
1463692716486442807,0.991666674614,2.35968971252,-0.811814367771,-4.87087154388,11.8310413361,0.0,-7.95692014694
1463692716502977824,1.00833332539,2.31259608269,-0.713222324848,-0.780375242233,0.0,0.0,-3.87412166595
1463692716532894832,1.02499997616,2.27970910072,-0.652121961117,-3.1660554409,7.33204841614,0.0,11.8310413361
1463692716538327584,1.04166662693,2.21595335007,-0.492948174477,-4.48463058472,11.7688026428,0.0,-7.33204841614
1463692716551592304,1.0583332777,2.16982221603,-0.394874840975,-1.05111253262,0.0,0.0,-4.43675374985
1463692716568649719,1.07500004768,2.12587165833,-0.297375589609,-4.22294807434,11.6999082565,0.0,11.7688026428
1463692716586770258,1.09166669846,2.06486153603,-0.137260720134,-3.09827709198,7.51387786865,0.0,-11.6999082565
1463692716602462145,1.10833334923,2.02800989151,-0.0746450647712,-1.32392394543,0.0,0.0,4.18603038788
1463692716619166397,1.125,1.98882472515,0.00807208567858,-3.37829422951,9.92605876923,0.0,7.51387786865
1463692716637696574,1.14166665077,1.93910014629,0.142685770988,-2.58865666389,6.22758340836,0.0,-9.92605876923
1463692716652220131,1.15833330154,1.90546560287,0.194582298398,-1.44748187065,0.0,0.0,3.69847512245
1463692716670534194,1.17499995232,1.87426364422,0.243802428246,-2.2967479229,5.90641593933,0.0,6.22758340836
1463692716686795164,1.1916667223,1.83382117748,0.362957268953,-2.55635738373,8.3921661377,0.0,-5.90641593933
1463692716702212796,1.20833337307,1.80029904842,0.432891994715,-1.46629786491,0.0,0.0,-2.48575019836
1463692716739972806,1.22500002384,1.7765737772,0.432891994715,-1.38072896004,0.0,-20.0,8.3921661377
1463692716744636340,1.24166667461,1.74117004871,0.569195687771,-2.86771798134,16.3564434052,-20.0,0.0
1463692716754027110,1.25833332539,1.70405328274,0.705499351025,-1.58630013466,0.0,-20.0,-16.3564434052
1463692716768783033,1.27499997616,1.67834317684,0.705499351025,-1.49890327454,0.0,-20.0,16.3564434052
1463692716787345827,1.29166662693,1.65052235126,0.780954957008,-1.83960187435,9.05466651917,-20.0,0.0
1463692716802453154,1.3083332777,1.62106537819,0.917434692383,-1.69522964954,7.32290697098,-20.0,-9.05466651917
1463692716818938246,1.32500004768,1.59464621544,0.978458940983,-1.47507596016,0.0,-20.0,1.73175930977
1463692716835516827,1.34166669846,1.57028675079,1.06606149673,-1.44805252552,10.5123128891,-20.0,7.32290697098
1463692716852128480,1.35833334923,1.54633235931,1.15366411209,-1.42647588253,0.0,-20.0,-10.5123128891
1463692716870873205,1.375,1.52463662624,1.22834408283,-1.17702162266,8.96158790588,-20.0,10.5123128891
1463692716886991783,1.39166665077,1.50523805618,1.35977017879,-1.15080022812,6.80955171585,-20.0,-8.96158790588
1463692716903051777,1.40833330154,1.48465287685,1.41651654243,-1.31942498684,0.0,-20.0,2.15203619003
1463692716930698107,1.42499995232,1.46503734589,1.45076644421,-1.0344312191,4.10999011993,-20.0,6.80955171585
1463692716935441003,1.4416667223,1.44949352741,1.53663229942,-0.830828309059,6.19391965866,-20.0,-4.10999011993
1463692716952631295,1.45833337307,1.4330612421,1.58824837208,-1.14104509354,0.0,-20.0,-2.08392930031
1463692716969914805,1.47500002384,1.41737830639,1.62416470051,-0.740905940533,4.3099732399,-20.0,6.19391965866
1463692716985491734,1.49166667461,1.40428817272,1.67783534527,-0.829921662807,2.13050031662,-20.0,-4.3099732399
1463692717002759532,1.50833332539,1.38962745667,1.69558954239,-0.929353475571,0.0,-20.0,2.17947292328
1463692717019403911,1.52499997616,1.37613320351,1.70945298672,-0.689960002899,1.66361868382,-20.0,2.13050031662
1463692717035684413,1.54166662693,1.36511027813,1.7350383997,-0.632787466049,1.40663123131,-20.0,-1.66361868382
1463692717052467052,1.5583332777,1.35402691364,1.74676036835,-0.697225391865,0.0,-20.0,0.2569873631
1463692717069924733,1.57500004768,1.34304702282,1.74634814262,-0.620363354683,-0.0494742840528,-20.0,1.40663123131
1463692717085507272,1.59166669846,1.33270287514,1.7395529747,-0.620923042297,-0.765942394733,-20.0,0.0494742840528
1463692717102423418,1.60833334923,1.32379984856,1.73317015171,-0.44745272398,0.0,-20.0,0.716468095779
1463692717145797831,1.625,1.31505668163,1.71731984615,-0.601721644402,-1.90203046799,0.0,-0.765942394733
1463692717152089979,1.64166665077,1.30532252789,1.6826454401,-0.566375851631,-2.25890350342,0.0,1.90203046799
1463692717156607880,1.65833330154,1.29905843735,1.6638212204,-0.185311213136,0.0,0.0,0.356872916222
1463692717168894965,1.67499995232,1.29662966728,1.6638212204,-0.106145441532,0.0,0.0,-2.25890350342
1463692717185692112,1.6916667223,1.29461503029,1.65715062618,-0.135607719421,-0.800464689732,0.0,0.0
1463692717203470438,1.70833337307,1.29387080669,1.65010786057,0.046300701797,-0.0446673072875,0.0,0.800464689732
1463692717219663122,1.72500002384,1.29534423351,1.64973568916,0.130506440997,0.0,0.0,-0.755797386169
1463692717235750012,1.74166667461,1.29838263988,1.65132701397,0.234102249146,0.190963506699,0.0,-0.0446673072875
1463692717252522212,1.75833332539,1.30270588398,1.65282475948,0.284686416388,-0.0112404292449,0.0,-0.190963506699
1463692717268954689,1.77499997616,1.30810773373,1.65273106098,0.363535255194,0.0,0.0,0.202203944325
1463692717285580403,1.79166662693,1.31567585468,1.65950453281,0.544637322426,0.812814354897,0.0,-0.0112404292449
1463692717302091881,1.8083332777,1.32504892349,1.67027664185,0.58013522625,0.479840129614,0.0,-0.812814354897
1463692717327413377,1.82500004768,1.33488154411,1.67427527905,0.599782824516,0.0,0.0,0.33297419548
1463692717335457959,1.84166669846,1.34598231316,1.67835211754,0.732306361198,0.489226162434,0.0,0.479840129614
1463692717353373411,1.85833334923,1.35827445984,1.68141639233,0.742754042149,-0.121525675058,0.0,-0.489226162434
1463692717369489163,1.875,1.37147212029,1.68115508556,0.840957462788,0.0901763364673,0.0,0.61075180769
1463692717385664360,1.89166665077,1.38605332375,1.68190658092,0.90879791975,0.0,0.0,-0.211702018976
1463692717402920362,1.90833330154,1.40209126472,1.68481051922,1.01574897766,0.348472505808,0.0,0.0901763364673
1463692717419438092,1.92499995232,1.41942429543,1.68771445751,1.0642156601,0.0,0.0,-0.348472505808
1463692717437253347,1.9416667223,1.43773579597,1.68686294556,1.1331590414,-0.102183200419,0.0,0.348472505808
1463692717452084838,1.95833337307,1.45737493038,1.68709993362,1.22354030609,0.130619958043,0.0,0.102183200419
1463692717469565842,1.97500002384,1.47834384441,1.68818843365,1.29273664951,0.0,0.0,-0.232803151011
1463692717485778644,1.99166667461,1.50042188168,1.6857509613,1.35662579536,-0.292487889528,0.0,0.130619958043
1463692717502589877,2.0083334446,1.52372694016,1.68306279182,1.43997490406,-0.0301015842706,0.0,0.292487889528
1463692717534287986,2.02500009537,1.54835903645,1.68281185627,1.51588094234,0.0,0.0,-0.262386292219
1463692717539301598,2.04166674614,1.57425224781,1.68333280087,1.5912964344,0.0625069662929,0.0,-0.0301015842706
1463692717552293265,2.05833339691,1.60139679909,1.68439745903,1.66606223583,0.0652473419905,0.0,-0.0625069662929
1463692717569860395,2.07500004768,1.62979662418,1.6849411726,1.74191486835,0.0,0.0,-0.00274037662894
1463692717585861108,2.09166669846,1.65937840939,1.68675744534,1.80789530277,0.217951267958,0.0,0.0652473419905
1463692717601647845,2.10833334923,1.69021570683,1.68857371807,1.89258420467,0.0,0.0,-0.217951267958
1463692717619083850,2.125,1.72236645222,1.68855893612,1.96550440788,-0.00177376135252,0.0,0.217951267958
1463692717635757718,2.14166665077,1.75581455231,1.68746221066,2.04825758934,-0.129820108414,0.0,0.00177376135252
1463692717652388150,2.15833330154,1.79043769836,1.68638038635,2.10652065277,0.0,0.0,0.128046348691
1463692717670100001,2.17499995232,1.82622933388,1.68555533886,2.18847870827,-0.0990136265755,0.0,-0.129820108414
1463692717685883870,2.19166660309,1.86329603195,1.68379592896,2.25952196121,-0.112107694149,0.0,0.0990136265755
1463692717702304169,2.20833325386,1.90137970448,1.68286168575,2.31052184105,0.0,0.0,0.0130940685049
1463692717734799725,2.22499990463,1.94044566154,1.68286168575,2.37739181519,0.0,0.0,-0.112107694149
1463692717741066627,2.2416665554,1.98005330563,1.68582749367,2.37552833557,0.355896741152,0.0,0.0
1463692717752226976,2.2583334446,2.02082395554,1.68865025043,2.51696133614,-0.0171745084226,0.0,-0.355896741152
1463692717768959803,2.27500009537,2.06329369545,1.68835020065,2.57941150665,-0.0188279412687,0.0,0.3730712533
1463692717786626852,2.29166674614,2.10684370995,1.6877976656,2.64658880234,-0.0474820360541,0.0,0.00165343331173
1463692717802690750,2.30833339691,2.15133309364,1.68740189075,2.69211602211,0.0,0.0,0.0286540947855
1463692717818840733,2.32500004768,2.19682502747,1.6868429184,2.76691365242,-0.0670769140124,0.0,-0.0474820360541
1463692717835345265,2.34166669846,2.24350380898,1.68532955647,2.83454418182,-0.114535428584,0.0,0.0670769140124
1463692717852345294,2.35833334923,2.29086351395,1.68437504768,2.84863114357,0.0,0.0,0.0474585145712
1463692717869084676,2.375,2.33914494514,1.683177948,2.94512701035,-0.143650442362,0.0,-0.114535428584
1463692717885423966,2.39166665077,2.38912820816,1.67930686474,3.05288362503,-0.320878863335,0.0,0.143650442362
1463692717902469291,2.40833330154,2.43935990334,1.67663288116,2.97491455078,0.0,0.0,0.177228420973
1463692717928598137,2.42499995232,2.49037671089,1.67376494408,3.14710879326,-0.344162195921,-20.0,-0.320878863335
1463692717934828246,2.44166660309,2.54206871986,1.67062366009,3.05591273308,-0.0327805243433,-20.0,0.344162195921
1463692717952107391,2.45833325386,2.59314894676,1.67035055161,3.07371234894,0.0,-20.0,-0.311381667852
1463692717971754386,2.47499990463,2.64463233948,1.67029809952,3.10430502892,-0.00629761721939,-20.0,-0.0327805243433
1463692717987588585,2.4916665554,2.69729137421,1.66857004166,3.21477651596,-0.20107036829,-20.0,0.00629761721939
1463692718003649931,2.5083334446,2.7502720356,1.66689443588,3.14290833473,0.0,-20.0,0.194772750139
1463692718019088751,2.52500009537,2.80360937119,1.66512680054,3.25757932663,-0.212110266089,-20.0,-0.20107036829
1463692718036738306,2.54166674614,2.85923075676,1.65899002552,3.41696619987,-0.524305939674,-20.0,0.212110266089
1463692718052574571,2.55833339691,2.91412639618,1.65462076664,3.17051076889,0.0,-20.0,0.312195658684
1463692718069283304,2.57500004768,2.96922206879,1.65005433559,3.44098520279,-0.547982335091,-20.0,-0.524305939674
1463692718086898624,2.59166669846,3.02469015121,1.64469492435,3.21518301964,-0.0951355695724,-20.0,0.547982335091
1463692718102675842,2.60833334923,3.07783317566,1.64390218258,3.16198801994,0.0,-20.0,-0.452846765518
1463692718148323473,2.625,3.13264155388,1.63949620724,3.41501235962,-0.528722465038,0.0,-0.0951355695724
1463692718153658836,2.64166665077,3.18969893456,1.63013827801,3.43186831474,-0.594216406345,0.0,0.528722465038
1463692718160269642,2.65833330154,3.2442677021,1.62518656254,3.1163725853,0.0,0.0,0.0654939636588
1463692718169070172,2.67499995232,3.29915642738,1.61882007122,3.47029519081,-0.763967990875,0.0,-0.594216406345
1463692718186186126,2.69166660309,3.35666847229,1.60625195503,3.4311439991,-0.74420773983,0.0,0.763967990875
1463692718204695036,2.70833325386,3.41057515144,1.60005021095,3.03764104843,0.0,0.0,-0.0197602529079
1463692718219894439,2.72499990463,3.46471762657,1.59204101562,3.45946717262,-0.961105942726,0.0,-0.74420773983
1463692718236904986,2.7416665554,3.52524495125,1.56912958622,3.80379867554,-1.78827047348,0.0,0.961105942726
1463692718252868107,2.7583334446,3.58144569397,1.55422735214,2.94031643867,0.0,0.0,0.827164471149
1463692718270480007,2.77500009537,3.63445591927,1.54432225227,3.4209022522,-1.18860185146,0.0,-1.78827047348
1463692718287166744,2.79166674614,3.69264340401,1.52074193954,3.56158471107,-1.64104652405,0.0,1.18860185146
1463692718302900437,2.80833339691,3.74581408501,1.50706648827,2.81890153885,0.0,0.0,0.452444642782
1463692718331681996,2.82500004768,3.79499816895,1.5003721714,3.08318567276,-0.803323566914,0.0,-1.64104652405
1463692718338986934,2.84166669846,3.84650111198,1.48530876637,3.09715867043,-1.0042835474,0.0,0.803323566914
1463692718351855657,2.85833334923,3.89445710182,1.47693967819,2.65758323669,0.0,0.0,0.20096001029
1463692718369105922,2.875,3.93950843811,1.47321605682,2.74857807159,-0.44684484601,0.0,-1.0042835474
1463692718388375339,2.89166665077,3.98346304893,1.46949231625,2.52597236633,0.0,0.0,0.44684484601
1463692718403075526,2.90833330154,4.02543878555,1.46801328659,2.51113057137,-0.177480697632,0.0,-0.44684484601
1463692718420219285,2.92499995232,4.06739997864,1.46268641949,2.52418518066,-0.461752831936,0.0,0.177480697632
1463692718435958398,2.94166660309,4.10771274567,1.45883846283,2.31333589554,0.0,0.0,0.284272134304
1463692718452525926,2.95833325386,4.14763593674,1.4515222311,2.47745513916,-0.877946674824,0.0,-0.461752831936
1463692718469077341,2.97499990463,4.1896033287,1.43168115616,2.55866122246,-1.50297212601,0.0,0.877946674824
1463692718485875902,2.9916665554,4.22856664658,1.41915643215,2.11691141129,0.0,0.0,0.625025451183
1463692718502270936,3.0083334446,4.27043914795,1.38667881489,2.90779280663,-3.89731478691,0.0,-1.50297212601
1463692718528801725,3.02500009537,4.31162071228,1.35420119762,2.03397011757,0.0,0.0,3.89731478691
1463692718534884256,3.04166674614,4.35218381882,1.31471693516,2.83363890648,-4.73810958862,0.0,-3.89731478691
1463692718551617952,3.05833339691,4.39697217941,1.24608743191,2.54095721245,-3.49743080139,0.0,4.73810958862
